
0.000000e+000, 1.000000e+000, 0.000000e+000, 2.489559e-001  
3.106010e-005, 1.194171e+000, 3.106010e-005, -1.393947e-001  
6.212020e-005, 1.385650e+000, 6.212020e-005, -5.223156e-001  
9.318030e-005, 1.567203e+000, 9.318030e-005, -8.853596e-001  
1.242404e-004, 1.731950e+000, 1.242404e-004, -1.214749e+000  
1.553005e-004, 1.873631e+000, 1.553005e-004, -1.497984e+000  
1.863606e-004, 1.986880e+000, 1.863606e-004, -1.724320e+000  
2.174207e-004, 2.067392e+000, 2.174207e-004, -1.885172e+000  
2.484808e-004, 2.112124e+000, 2.484808e-004, -1.974442e+000  
2.795409e-004, 2.119374e+000, 2.795409e-004, -1.988750e+000  
3.106010e-004, 2.089552e+000, 3.106010e-004, -1.928913e+000  
3.416611e-004, 2.022207e+000, 3.416611e-004, -1.794037e+000  
3.727212e-004, 1.921024e+000, 3.727212e-004, -1.591505e+000  
4.037813e-004, 1.789637e+000, 4.037813e-004, -1.328583e+000  
4.348414e-004, 1.633033e+000, 4.348414e-004, -1.015257e+000  
4.659015e-004, 1.457162e+000, 4.659015e-004, -6.634285e-001  
4.969616e-004, 1.268699e+000, 4.969616e-004, -2.864553e-001  
5.280217e-004, 1.074803e+000, 5.280217e-004, 1.013500e-001  
5.590818e-004, 8.828322e-001, 5.590818e-004, 4.852656e-001  
5.901419e-004, 7.000747e-001, 5.901419e-004, 8.507192e-001  
6.212020e-004, 5.334647e-001, 6.212020e-004, 1.183841e+000  
6.522621e-004, 3.888325e-001, 6.522621e-004, 1.472983e+000  
6.833222e-004, 2.727538e-001, 6.833222e-004, 1.704984e+000  
7.143823e-004, 1.888783e-001, 7.143823e-004, 1.872556e+000  
7.454424e-004, 1.405512e-001, 7.454424e-004, 1.969024e+000  
7.765025e-004, 1.295977e-001, 7.765025e-004, 1.990734e+000  
8.075626e-004, 1.564331e-001, 8.075626e-004, 1.936872e+000  
8.386227e-004, 2.200310e-001, 8.386227e-004, 1.809488e+000  
8.696828e-004, 3.179770e-001, 8.696828e-004, 1.613428e+000  
9.007429e-004, 4.465462e-001, 9.007429e-004, 1.356139e+000  
9.318030e-004, 6.008585e-001, 9.318030e-004, 1.047395e+000  
9.628631e-004, 7.748080e-001, 9.628631e-004, 6.994009e-001  
9.939232e-004, 9.624560e-001, 9.939232e-004, 3.240517e-001  
1.024983e-003, 1.156148e+000, 1.024983e-003, -6.334907e-002  
1.056043e-003, 1.348640e+000, 1.056043e-003, -4.483023e-001  
1.087104e-003, 1.532614e+000, 1.087104e-003, -8.161961e-001  
1.118164e-003, 1.701099e+000, 1.118164e-003, -1.153068e+000  
1.149224e-003, 1.847692e+000, 1.149224e-003, -1.446133e+000  
1.180284e-003, 1.967404e+000, 1.180284e-003, -1.685408e+000  
1.211344e-003, 2.054417e+000, 1.211344e-003, -1.859257e+000  
1.242404e-003, 2.106326e+000, 1.242404e-003, -1.962888e+000  
1.273464e-003, 2.120977e+000, 1.273464e-003, -1.991993e+000  
1.304524e-003, 2.097815e+000, 1.304524e-003, -1.945477e+000  
1.335584e-003, 2.037727e+000, 1.335584e-003, -1.825112e+000  
1.366644e-003, 1.942995e+000, 1.366644e-003, -1.635477e+000  
1.397704e-003, 1.817220e+000, 1.397704e-003, -1.383776e+000  
1.428765e-003, 1.665179e+000, 1.428765e-003, -1.079571e+000  
1.459825e-003, 1.492903e+000, 1.459825e-003, -7.349196e-001  
1.490885e-003, 1.306237e+000, 1.490885e-003, -3.615321e-001  
1.521945e-003, 1.112816e+000, 1.521945e-003, 2.532314e-002  
1.553005e-003, 9.198834e-001, 1.553005e-003, 4.111739e-001  
1.584065e-003, 7.347539e-001, 1.584065e-003, 7.813740e-001  
1.615125e-003, 5.644606e-001, 1.615125e-003, 1.121873e+000  
1.646185e-003, 4.154596e-001, 1.646185e-003, 1.419749e+000  
1.677245e-003, 2.934109e-001, 1.677245e-003, 1.663700e+000  
1.708306e-003, 2.023205e-001, 1.708306e-003, 1.845713e+000  
1.739366e-003, 1.470637e-001, 1.739366e-003, 1.956037e+000  
1.770426e-003, 1.287207e-001, 1.770426e-003, 1.992527e+000  
1.801486e-003, 1.482003e-001, 1.801486e-003, 1.953374e+000  
1.832546e-003, 2.047567e-001, 1.832546e-003, 1.840073e+000  
1.863606e-003, 2.962407e-001, 1.863606e-003, 1.656932e+000  
1.894666e-003, 4.191743e-001, 1.894666e-003, 1.410911e+000  
1.925726e-003, 5.688894e-001, 1.925726e-003, 1.111354e+000  
1.956786e-003, 7.396991e-001, 1.956786e-003, 7.696387e-001  
1.987846e-003, 9.251188e-001, 1.987846e-003, 3.987391e-001  
2.018906e-003, 1.118108e+000, 2.018906e-003, 1.273705e-002  
2.049967e-003, 1.311341e+000, 2.049967e-003, -3.737141e-001  
2.081027e-003, 1.497482e+000, 2.081027e-003, -7.459451e-001  
2.112087e-003, 1.669468e+000, 2.112087e-003, -1.089828e+000  
2.143147e-003, 1.820769e+000, 2.143147e-003, -1.392312e+000  
2.174207e-003, 1.946165e+000, 2.174207e-003, -1.642962e+000  
2.205267e-003, 2.039679e+000, 2.205267e-003, -1.829818e+000  
2.236327e-003, 2.098682e+000, 2.236327e-003, -1.947635e+000  
2.267387e-003, 2.120714e+000, 2.267387e-003, -1.991507e+000  
2.298447e-003, 2.104945e+000, 2.298447e-003, -1.959773e+000  
2.329507e-003, 2.051976e+000, 2.329507e-003, -1.853648e+000  
2.360568e-003, 1.963822e+000, 2.360568e-003, -1.677164e+000  
2.391628e-003, 1.843831e+000, 2.391628e-003, -1.437027e+000  
2.422688e-003, 1.696561e+000, 2.422688e-003, -1.142357e+000  
2.453748e-003, 1.527604e+000, 2.453748e-003, -8.043438e-001  
2.484808e-003, 1.343375e+000, 2.484808e-003, -4.358214e-001  
2.515868e-003, 1.150886e+000, 2.515868e-003, -5.080964e-002  
2.546928e-003, 9.573203e-001, 2.546928e-003, 3.363100e-001  
2.577988e-003, 7.701608e-001, 2.577988e-003, 7.105739e-001  
2.609048e-003, 5.964912e-001, 2.609048e-003, 1.057832e+000  
2.640108e-003, 4.428952e-001, 2.640108e-003, 1.364904e+000  
2.671169e-003, 3.152068e-001, 2.671169e-003, 1.620139e+000  
2.702229e-003, 2.182656e-001, 2.702229e-003, 1.813852e+000  
2.733289e-003, 1.557540e-001, 2.733289e-003, 1.938693e+000  
2.764349e-003, 1.294210e-001, 2.764349e-003, 1.991167e+000  
2.795409e-003, 1.417898e-001, 2.795409e-003, 1.966232e+000  
2.826469e-003, 1.911868e-001, 2.826469e-003, 1.867248e+000  
2.857529e-003, 2.760288e-001, 2.857529e-003, 1.697388e+000  
2.888589e-003, 3.930898e-001, 2.888589e-003, 1.463108e+000  
2.919649e-003, 5.379259e-001, 2.919649e-003, 1.173304e+000  
2.950709e-003, 7.050353e-001, 2.950709e-003, 8.389826e-001  
2.981770e-003, 8.880747e-001, 2.981770e-003, 4.728368e-001  
3.012830e-003, 1.080094e+000, 3.012830e-003, 8.876749e-002  
3.043890e-003, 1.273804e+000, 3.043890e-003, -2.986454e-001  
3.074950e-003, 1.461851e+000, 3.074950e-003, -6.746959e-001  
3.106010e-003, 1.637408e+000, 3.106010e-003, -1.025736e+000  
3.137070e-003, 1.793098e+000, 3.137070e-003, -1.336999e+000  
3.168130e-003, 1.923557e+000, 3.168130e-003, -1.597769e+000  
3.199190e-003, 2.023687e+000, 3.199190e-003, -1.797866e+000  
3.230250e-003, 2.089695e+000, 3.230250e-003, -1.929698e+000  
3.261310e-003, 2.119075e+000, 3.261310e-003, -1.988267e+000  
3.292371e-003, 2.110717e+000, 3.292371e-003, -1.971354e+000  
3.323431e-003, 2.064938e+000, 3.323431e-003, -1.879607e+000  
3.354491e-003, 1.984000e+000, 3.354491e-003, -1.717551e+000  
3.385551e-003, 1.869634e+000, 3.385551e-003, -1.488657e+000  
3.416611e-003, 1.727286e+000, 3.416611e-003, -1.203825e+000  
3.447671e-003, 1.562082e+000, 3.447671e-003, -8.733171e-001  
3.478731e-003, 1.380301e+000, 3.478731e-003, -5.096813e-001  
3.509791e-003, 1.188838e+000, 3.509791e-003, -1.267237e-001  
3.540851e-003, 9.949666e-001, 3.540851e-003, 2.610180e-001  
3.571911e-003, 8.060413e-001, 3.571911e-003, 6.388252e-001  
3.602972e-003, 6.289355e-001, 3.602972e-003, 9.929651e-001  
3.634032e-003, 4.710601e-001, 3.634032e-003, 1.308606e+000  
3.665092e-003, 3.378839e-001, 3.665092e-003, 1.574817e+000  
3.696152e-003, 2.345956e-001, 3.696152e-003, 1.781226e+000  
3.727212e-003, 1.651188e-001, 3.727212e-003, 1.920001e+000  
3.758272e-003, 1.320824e-001, 3.758272e-003, 1.985879e+000  
3.789332e-003, 1.367422e-001, 3.789332e-003, 1.976367e+000  
3.820392e-003, 1.783338e-001, 3.820392e-003, 1.892991e+000  
3.851452e-003, 2.567491e-001, 3.851452e-003, 1.735979e+000  
3.882512e-003, 3.678244e-001, 3.882512e-003, 1.513665e+000  
3.913573e-003, 5.076353e-001, 3.913573e-003, 1.233909e+000  
3.944633e-003, 6.708675e-001, 3.944633e-003, 9.073348e-001  
3.975693e-003, 8.513278e-001, 3.975693e-003, 5.463415e-001  
4.006753e-003, 1.042161e+000, 4.006753e-003, 1.646349e-001  
4.037813e-003, 1.236126e+000, 4.037813e-003, -2.232944e-001  
4.068873e-003, 1.426042e+000, 4.068873e-003, -6.030951e-001  
4.099933e-003, 1.604318e+000, 4.099933e-003, -9.595717e-001  
4.130993e-003, 1.764453e+000, 4.130993e-003, -1.279735e+000  
4.162053e-003, 1.900303e+000, 4.162053e-003, -1.551291e+000  
4.193113e-003, 2.006705e+000, 4.193113e-003, -1.763936e+000  
4.224174e-003, 2.079630e+000, 4.224174e-003, -1.909603e+000  
4.255234e-003, 2.116306e+000, 4.255234e-003, -1.982768e+000  
4.286294e-003, 2.115967e+000, 4.286294e-003, -1.981895e+000  
4.317354e-003, 2.077094e+000, 4.317354e-003, -1.903954e+000  
4.348414e-003, 2.002373e+000, 4.348414e-003, -1.754331e+000  
4.379474e-003, 1.894350e+000, 4.379474e-003, -1.538124e+000  
4.410534e-003, 1.757132e+000, 4.410534e-003, -1.263545e+000  
4.441594e-003, 1.595926e+000, 4.441594e-003, -9.410234e-001  
4.472654e-003, 1.416856e+000, 4.472654e-003, -5.828041e-001  
4.503714e-003, 1.226718e+000, 4.503714e-003, -2.024875e-001  
4.534775e-003, 1.032733e+000, 4.534775e-003, 1.854883e-001  
4.565835e-003, 8.420889e-001, 4.565835e-003, 5.667487e-001  
4.596895e-003, 6.623769e-001, 4.596895e-003, 9.261009e-001  
4.627955e-003, 5.001737e-001, 4.627955e-003, 1.250397e+000  
4.659015e-003, 3.617067e-001, 4.659015e-003, 1.527199e+000  
4.690075e-003, 2.522235e-001, 4.690075e-003, 1.746004e+000  
4.721135e-003, 1.758821e-001, 4.721135e-003, 1.898510e+000  
4.752195e-003, 1.355734e-001, 4.752195e-003, 1.978936e+000  
4.783255e-003, 1.328288e-001, 4.783255e-003, 1.984232e+000  
4.814315e-003, 1.671529e-001, 4.814315e-003, 1.915390e+000  
4.845376e-003, 2.387334e-001, 4.845376e-003, 1.772044e+000  
4.876436e-003, 3.436608e-001, 4.876436e-003, 1.562023e+000  
4.907496e-003, 4.782412e-001, 4.907496e-003, 1.292722e+000  
4.938556e-003, 6.373590e-001, 4.938556e-003, 9.743706e-001  
4.969616e-003, 8.149766e-001, 4.969616e-003, 6.190557e-001  
5.000676e-003, 1.004347e+000, 5.000676e-003, 2.402676e-001  
5.031736e-003, 1.198284e+000, 5.031736e-003, -1.476135e-001  
5.062796e-003, 1.389587e+000, 5.062796e-003, -5.301946e-001  
5.093856e-003, 1.570669e+000, 5.093856e-003, -8.922915e-001  
5.124916e-003, 1.734875e+000, 5.124916e-003, -1.220602e+000  
5.155977e-003, 1.875918e+000, 5.155977e-003, -1.502550e+000  
5.187037e-003, 1.988437e+000, 5.187037e-003, -1.727435e+000  
5.218097e-003, 2.068173e+000, 5.218097e-003, -1.886726e+000  
5.249157e-003, 2.112094e+000, 5.249157e-003, -1.974382e+000  
5.280217e-003, 2.119166e+000, 5.280217e-003, -1.988331e+000  
5.311277e-003, 2.087582e+000, 5.311277e-003, -1.924968e+000  
5.342337e-003, 2.019747e+000, 5.342337e-003, -1.789113e+000  
5.373397e-003, 1.917950e+000, 5.373397e-003, -1.585354e+000  
5.404457e-003, 1.786062e+000, 5.404457e-003, -1.321430e+000  
5.435517e-003, 1.629087e+000, 5.435517e-003, -1.007364e+000  
5.466578e-003, 1.452990e+000, 5.466578e-003, -6.550831e-001  
5.497638e-003, 1.264453e+000, 5.497638e-003, -2.779616e-001  
5.528698e-003, 1.070637e+000, 5.528698e-003, 1.096836e-001  
5.559758e-003, 8.788960e-001, 5.559758e-003, 4.931372e-001  
5.590818e-003, 6.962476e-001, 5.590818e-003, 8.583769e-001  
5.621878e-003, 5.302055e-001, 5.621878e-003, 1.190362e+000  
5.652938e-003, 3.866455e-001, 5.652938e-003, 1.477352e+000  
5.683998e-003, 2.711237e-001, 5.683998e-003, 1.708236e+000  
5.715058e-003, 1.880286e-001, 5.715058e-003, 1.874254e+000  
5.746118e-003, 1.405053e-001, 5.746118e-003, 1.969109e+000  
5.777179e-003, 1.303601e-001, 5.777179e-003, 1.989207e+000  
5.808239e-003, 1.573662e-001, 5.808239e-003, 1.935001e+000  
5.839299e-003, 2.220071e-001, 5.839299e-003, 1.805532e+000  
5.870359e-003, 3.206332e-001, 5.870359e-003, 1.608109e+000  
5.901419e-003, 4.497868e-001, 5.901419e-003, 1.349657e+000  
5.932479e-003, 6.045581e-001, 5.932479e-003, 1.039992e+000  
5.963539e-003, 7.790743e-001, 5.963539e-003, 6.908734e-001  
5.994599e-003, 9.667060e-001, 5.994599e-003, 3.155556e-001  
6.025659e-003, 1.160333e+000, 6.025659e-003, -7.171257e-002  
6.056719e-003, 1.352743e+000, 6.056719e-003, -4.565164e-001  
6.087780e-003, 1.536368e+000, 6.087780e-003, -8.237063e-001  
6.118840e-003, 1.704407e+000, 6.118840e-003, -1.159688e+000  
6.149900e-003, 1.850437e+000, 6.149900e-003, -1.451616e+000  
6.180960e-003, 1.968911e+000, 6.180960e-003, -1.688415e+000  
6.212020e-003, 2.055341e+000, 6.212020e-003, -1.861099e+000  
6.243080e-003, 2.106444e+000, 6.243080e-003, -1.963119e+000  
6.274140e-003, 2.120917e+000, 6.274140e-003, -1.991872e+000  
6.305200e-003, 2.096670e+000, 6.305200e-003, -1.943180e+000  
6.336260e-003, 2.035820e+000, 6.336260e-003, -1.821293e+000  
6.367320e-003, 1.940397e+000, 6.367320e-003, -1.630279e+000  
6.398381e-003, 1.814030e+000, 6.398381e-003, -1.377394e+000  
6.429441e-003, 1.661516e+000, 6.429441e-003, -1.072243e+000  
6.460501e-003, 1.488648e+000, 6.460501e-003, -7.264134e-001  
6.491561e-003, 1.301986e+000, 6.491561e-003, -3.530361e-001  
6.522621e-003, 1.108622e+000, 6.522621e-003, 3.371412e-002  
6.553681e-003, 9.158906e-001, 6.553681e-003, 4.191556e-001  
6.584741e-003, 7.308681e-001, 6.584741e-003, 7.891508e-001  
6.615801e-003, 5.611028e-001, 6.615801e-003, 1.128590e+000  
6.646861e-003, 4.126601e-001, 6.646861e-003, 1.425351e+000  
6.677921e-003, 2.912687e-001, 6.677921e-003, 1.667978e+000  
6.708982e-003, 2.015404e-001, 6.708982e-003, 1.847266e+000  
6.740042e-003, 1.468714e-001, 6.740042e-003, 1.956415e+000  
6.771102e-003, 1.293397e-001, 6.771102e-003, 1.991287e+000  
6.802162e-003, 1.489880e-001, 6.802162e-003, 1.951795e+000  
6.833222e-003, 2.065944e-001, 6.833222e-003, 1.836392e+000  
6.864282e-003, 2.987753e-001, 6.864282e-003, 1.651856e+000  
6.895342e-003, 4.223135e-001, 6.895342e-003, 1.404630e+000  
6.926402e-003, 5.725127e-001, 6.926402e-003, 1.104104e+000  
6.957462e-003, 7.436731e-001, 6.957462e-003, 7.616903e-001  
6.988522e-003, 9.292926e-001, 6.988522e-003, 3.903893e-001  
7.019583e-003, 1.122328e+000, 7.019583e-003, 4.297937e-003  
7.050643e-003, 1.315565e+000, 7.050643e-003, -3.821678e-001  
7.081703e-003, 1.501466e+000, 7.081703e-003, -7.539156e-001  
7.112763e-003, 1.673092e+000, 7.112763e-003, -1.097079e+000  
7.143823e-003, 1.823898e+000, 7.143823e-003, -1.398565e+000  
7.174883e-003, 1.948154e+000, 7.174883e-003, -1.646933e+000  
7.205943e-003, 2.041154e+000, 7.205943e-003, -1.832760e+000  
7.237003e-003, 2.099364e+000, 7.237003e-003, -1.948997e+000  
7.268063e-003, 2.121218e+000, 7.268063e-003, -1.992512e+000  
7.299123e-003, 2.104343e+000, 7.299123e-003, -1.958564e+000  
7.330184e-003, 2.050567e+000, 7.330184e-003, -1.850824e+000  
7.361244e-003, 1.961659e+000, 7.361244e-003, -1.672833e+000  
7.392304e-003, 1.840998e+000, 7.392304e-003, -1.431357e+000  
7.423364e-003, 1.693166e+000, 7.423364e-003, -1.135565e+000  
7.454424e-003, 1.523779e+000, 7.454424e-003, -7.966911e-001  
7.485484e-003, 1.339265e+000, 7.485484e-003, -4.276018e-001  
7.516544e-003, 1.146633e+000, 7.516544e-003, -4.230977e-002  
7.547604e-003, 9.531927e-001, 7.547604e-003, 3.445587e-001  
7.578664e-003, 7.660656e-001, 7.578664e-003, 7.187703e-001  
7.609724e-003, 5.928240e-001, 7.609724e-003, 1.065168e+000  
7.640785e-003, 4.397116e-001, 7.640785e-003, 1.371269e+000  
7.671845e-003, 3.126310e-001, 7.671845e-003, 1.625287e+000  
7.702905e-003, 2.163967e-001, 7.702905e-003, 1.817585e+000  
7.733965e-003, 1.546638e-001, 7.733965e-003, 1.940870e+000  
7.765025e-003, 1.297679e-001, 7.765025e-003, 1.990466e+000  
7.796085e-003, 1.426558e-001, 7.796085e-003, 1.964497e+000  
7.827145e-003, 1.922434e-001, 7.827145e-003, 1.865131e+000  
7.858205e-003, 2.781188e-001, 7.858205e-003, 1.693202e+000  
7.889265e-003, 3.958594e-001, 7.889265e-003, 1.457563e+000  
7.920325e-003, 5.412703e-001, 7.920325e-003, 1.166613e+000  
7.951386e-003, 7.088236e-001, 7.951386e-003, 8.314032e-001  
7.982446e-003, 8.921627e-001, 7.982446e-003, 4.646600e-001  
8.013506e-003, 1.084293e+000, 8.013506e-003, 8.036327e-002  
8.044566e-003, 1.278083e+000, 8.044566e-003, -3.072097e-001  
8.075626e-003, 1.466015e+000, 8.075626e-003, -6.830208e-001  
8.106686e-003, 1.640977e+000, 8.106686e-003, -1.032867e+000  
8.137746e-003, 1.796339e+000, 8.137746e-003, -1.343472e+000  
8.168806e-003, 1.926197e+000, 8.168806e-003, -1.603049e+000  
8.199866e-003, 2.025631e+000, 8.199866e-003, -1.801749e+000  
8.230926e-003, 2.090865e+000, 8.230926e-003, -1.932035e+000  
8.261987e-003, 2.120068e+000, 8.261987e-003, -1.990251e+000  
8.293047e-003, 2.110590e+000, 8.293047e-003, -1.971097e+000  
8.324107e-003, 2.063968e+000, 8.324107e-003, -1.877661e+000  
8.355167e-003, 1.981703e+000, 8.355167e-003, -1.712955e+000  
8.386227e-003, 1.866925e+000, 8.386227e-003, -1.483239e+000  
8.417287e-003, 1.723992e+000, 8.417287e-003, -1.197238e+000  
8.448347e-003, 1.558332e+000, 8.448347e-003, -8.658140e-001  
8.479407e-003, 1.376235e+000, 8.479407e-003, -5.015505e-001  
8.510467e-003, 1.184616e+000, 8.510467e-003, -1.182775e-001  
8.541527e-003, 9.907473e-001, 8.541527e-003, 2.694548e-001  
8.572588e-003, 8.019900e-001, 8.572588e-003, 6.469285e-001  
8.603648e-003, 6.251961e-001, 8.603648e-003, 1.000444e+000  
8.634708e-003, 4.677689e-001, 8.634708e-003, 1.315185e+000  
8.665768e-003, 3.351756e-001, 8.665768e-003, 1.580226e+000  
8.696828e-003, 2.325798e-001, 8.696828e-003, 1.785256e+000  
8.727888e-003, 1.638675e-001, 8.727888e-003, 1.922497e+000  
8.758948e-003, 1.316478e-001, 8.758948e-003, 1.986746e+000  
8.790008e-003, 1.371371e-001, 8.790008e-003, 1.975571e+000  
8.821068e-003, 1.801275e-001, 8.821068e-003, 1.889401e+000  
8.852128e-003, 2.584349e-001, 8.852128e-003, 1.732604e+000  
8.883189e-003, 3.704669e-001, 8.883189e-003, 1.508377e+000  
8.914249e-003, 5.108721e-001, 8.914249e-003, 1.227429e+000  
8.945309e-003, 6.745797e-001, 8.945309e-003, 8.999108e-001  
8.976369e-003, 8.553668e-001, 8.976369e-003, 5.382597e-001  
9.007429e-003, 1.046377e+000, 9.007429e-003, 1.562058e-001  
9.038489e-003, 1.240352e+000, 9.038489e-003, -2.317469e-001  
9.069549e-003, 1.429935e+000, 9.069549e-003, -6.108718e-001  
9.100609e-003, 1.608227e+000, 9.100609e-003, -9.673882e-001  
9.131669e-003, 1.767796e+000, 9.131669e-003, -1.286418e+000  
9.162729e-003, 1.903070e+000, 9.162729e-003, -1.556827e+000  
9.193790e-003, 2.008796e+000, 9.193790e-003, -1.768112e+000  
9.224850e-003, 2.080958e+000, 9.224850e-003, -1.912259e+000  
9.255910e-003, 2.116826e+000, 9.255910e-003, -1.983801e+000  
9.286970e-003, 2.115037e+000, 9.286970e-003, -1.980030e+000  
9.318030e-003, 2.076273e+000, 9.318030e-003, -1.902309e+000  
9.349090e-003, 2.000503e+000, 9.349090e-003, -1.750586e+000  
9.380150e-003, 1.891775e+000, 9.380150e-003, -1.532966e+000  
9.411210e-003, 1.753947e+000, 9.411210e-003, -1.257173e+000  
9.442270e-003, 1.592257e+000, 9.442270e-003, -9.336814e-001  
9.473331e-003, 1.412841e+000, 9.473331e-003, -5.747743e-001  
9.504391e-003, 1.222515e+000, 9.504391e-003, -1.940786e-001  
9.535451e-003, 1.028500e+000, 9.535451e-003, 1.939532e-001  
9.566511e-003, 8.379843e-001, 9.566511e-003, 5.749561e-001  
9.597571e-003, 6.585522e-001, 9.597571e-003, 9.337485e-001  
9.628631e-003, 4.967827e-001, 9.628631e-003, 1.257182e+000  
9.659691e-003, 3.588731e-001, 9.659691e-003, 1.532860e+000  
9.690751e-003, 2.500631e-001, 9.690751e-003, 1.750324e+000  
9.721811e-003, 1.744724e-001, 9.721811e-003, 1.901323e+000  
9.752871e-003, 1.349738e-001, 9.752871e-003, 1.980133e+000  
9.783931e-003, 1.324168e-001, 9.783931e-003, 1.985052e+000  
9.814992e-003, 1.684539e-001, 9.814992e-003, 1.912783e+000  
9.846052e-003, 2.405287e-001, 9.846052e-003, 1.768450e+000  
9.877112e-003, 3.461728e-001, 9.877112e-003, 1.556998e+000  
9.908172e-003, 4.813695e-001, 9.908172e-003, 1.286461e+000  
9.939232e-003, 6.409873e-001, 9.939232e-003, 9.671134e-001  
9.970292e-003, 8.189624e-001, 9.970292e-003, 6.110811e-001  
1.000135e-002, 1.008540e+000, 1.000135e-002, 2.318823e-001  
1.003241e-002, 1.202521e+000, 1.003241e-002, -1.560874e-001  
1.006347e-002, 1.393711e+000, 1.006347e-002, -5.384426e-001  
1.009453e-002, 1.574529e+000, 1.009453e-002, -9.000097e-001  
1.012559e-002, 1.738321e+000, 1.012559e-002, -1.227486e+000  
1.015665e-002, 1.878810e+000, 1.015665e-002, -1.508334e+000  
1.018771e-002, 1.990672e+000, 1.018771e-002, -1.731897e+000  
1.021877e-002, 2.069658e+000, 1.021877e-002, -1.889695e+000  
1.024983e-002, 2.112779e+000, 1.024983e-002, -1.975744e+000  
1.028089e-002, 2.118395e+000, 1.028089e-002, -1.986784e+000  
1.031195e-002, 2.086920e+000, 1.031195e-002, -1.923641e+000  
1.034301e-002, 2.018028e+000, 1.034301e-002, -1.785670e+000  
1.037407e-002, 1.915509e+000, 1.037407e-002, -1.580465e+000  
1.040513e-002, 1.782989e+000, 1.040513e-002, -1.315282e+000  
1.043619e-002, 1.625504e+000, 1.043619e-002, -1.000195e+000  
1.046725e-002, 1.449031e+000, 1.046725e-002, -6.471669e-001  
1.049831e-002, 1.260275e+000, 1.049831e-002, -2.696030e-001  
1.052937e-002, 1.066396e+000, 1.052937e-002, 1.181634e-001  
1.056043e-002, 8.746017e-001, 1.056043e-002, 5.017315e-001  
1.059149e-002, 6.924641e-001, 1.059149e-002, 8.659417e-001  
1.062255e-002, 5.267142e-001, 1.062255e-002, 1.197342e+000  
1.065361e-002, 3.836886e-001, 1.065361e-002, 1.483257e+000  
1.068467e-002, 2.688218e-001, 1.068467e-002, 1.712839e+000  
1.071573e-002, 1.864626e-001, 1.071573e-002, 1.877379e+000  
1.074679e-002, 1.397415e-001, 1.074679e-002, 1.970636e+000  
1.077785e-002, 1.297747e-001, 1.077785e-002, 1.990375e+000  
1.080891e-002, 1.585017e-001, 1.080891e-002, 1.932725e+000  
1.083997e-002, 2.236501e-001, 1.083997e-002, 1.802242e+000  
1.087103e-002, 3.230090e-001, 1.087103e-002, 1.603357e+000  
1.090210e-002, 4.528003e-001, 1.090210e-002, 1.343625e+000  
1.093316e-002, 6.080973e-001, 1.093316e-002, 1.032913e+000  
1.096422e-002, 7.830002e-001, 1.096422e-002, 6.830185e-001  
1.099528e-002, 9.708706e-001, 1.099528e-002, 3.072270e-001  
1.102634e-002, 1.164574e+000, 1.102634e-002, -8.019492e-002  
1.105740e-002, 1.356759e+000, 1.105740e-002, -4.645402e-001  
1.108846e-002, 1.540391e+000, 1.108846e-002, -8.317503e-001  
1.111952e-002, 1.707944e+000, 1.111952e-002, -1.166761e+000  
1.115058e-002, 1.853447e+000, 1.115058e-002, -1.457640e+000  
1.118164e-002, 1.971285e+000, 1.118164e-002, -1.693157e+000  
1.121270e-002, 2.056981e+000, 1.121270e-002, -1.864378e+000  
1.124376e-002, 2.107292e+000, 1.124376e-002, -1.964809e+000  
1.127482e-002, 2.120306e+000, 1.127482e-002, -1.990645e+000  
1.130588e-002, 2.096167e+000, 1.130588e-002, -1.942173e+000  
1.133694e-002, 2.034254e+000, 1.133694e-002, -1.818158e+000  
1.136800e-002, 1.938094e+000, 1.136800e-002, -1.625666e+000  
1.139906e-002, 1.811075e+000, 1.139906e-002, -1.371481e+000  
1.143012e-002, 1.658025e+000, 1.143012e-002, -1.065257e+000  
1.146118e-002, 1.484753e+000, 1.146118e-002, -7.186229e-001  
1.149224e-002, 1.297840e+000, 1.149224e-002, -3.447406e-001  
1.152330e-002, 1.104380e+000, 1.152330e-002, 4.219576e-002  
1.155436e-002, 9.115866e-001, 1.155436e-002, 4.277699e-001  
1.158542e-002, 7.270091e-001, 1.158542e-002, 7.968673e-001  
1.161648e-002, 5.575199e-001, 1.161648e-002, 1.135753e+000  
1.164754e-002, 4.095860e-001, 1.164754e-002, 1.431490e+000  
1.167860e-002, 2.888290e-001, 1.167860e-002, 1.672857e+000  
1.170966e-002, 1.998208e-001, 1.170966e-002, 1.850698e+000  
1.174072e-002, 1.459446e-001, 1.174072e-002, 1.958267e+000  
1.177178e-002, 1.285819e-001, 1.177178e-002, 1.992799e+000  
1.180284e-002, 1.499561e-001, 1.180284e-002, 1.949853e+000  
1.183390e-002, 2.080827e-001, 1.183390e-002, 1.833412e+000  
1.186496e-002, 3.010112e-001, 1.186496e-002, 1.647384e+000  
1.189602e-002, 4.252076e-001, 1.189602e-002, 1.398838e+000  
1.192708e-002, 5.759573e-001, 1.192708e-002, 1.097214e+000  
1.195814e-002, 7.475331e-001, 1.195814e-002, 7.539672e-001  
1.198920e-002, 9.334225e-001, 1.198920e-002, 3.821303e-001  
1.202026e-002, 1.126566e+000, 1.202026e-002, -4.179738e-003  
1.205132e-002, 1.319634e+000, 1.205132e-002, -3.902978e-001  
1.208238e-002, 1.505536e+000, 1.208238e-002, -7.620559e-001  
1.211344e-002, 1.676718e+000, 1.211344e-002, -1.104330e+000  
1.214450e-002, 1.827026e+000, 1.214450e-002, -1.404818e+000  
1.217556e-002, 1.950663e+000, 1.217556e-002, -1.651947e+000  
1.220662e-002, 2.042948e+000, 1.220662e-002, -1.836343e+000  
1.223768e-002, 2.100374e+000, 1.223768e-002, -1.951012e+000  
1.226874e-002, 2.120769e+000, 1.226874e-002, -1.991608e+000  
1.229980e-002, 2.103360e+000, 1.229980e-002, -1.956595e+000  
1.233086e-002, 2.049413e+000, 1.233086e-002, -1.848512e+000  
1.236192e-002, 1.959497e+000, 1.236192e-002, -1.668503e+000  
1.239298e-002, 1.838166e+000, 1.239298e-002, -1.425687e+000  
1.242404e-002, 1.689771e+000, 1.242404e-002, -1.128773e+000  
1.245510e-002, 1.519954e+000, 1.245510e-002, -7.890384e-001  
1.248616e-002, 1.335156e+000, 1.248616e-002, -4.193823e-001  
1.251722e-002, 1.142398e+000, 1.251722e-002, -3.383934e-002  
1.254828e-002, 9.489939e-001, 1.254828e-002, 3.529546e-001  
1.257934e-002, 7.620576e-001, 1.257934e-002, 7.267839e-001  
1.261040e-002, 5.891546e-001, 1.261040e-002, 1.072504e+000  
1.264146e-002, 4.365307e-001, 1.264146e-002, 1.377633e+000  
1.267252e-002, 3.100537e-001, 1.267252e-002, 1.630435e+000  
1.270358e-002, 2.145293e-001, 1.270358e-002, 1.821319e+000  
1.273464e-002, 1.535721e-001, 1.273464e-002, 1.943046e+000  
1.276570e-002, 1.294997e-001, 1.276570e-002, 1.991001e+000  
1.279676e-002, 1.425712e-001, 1.279676e-002, 1.964662e+000  
1.282782e-002, 1.938491e-001, 1.282782e-002, 1.861915e+000  
1.285888e-002, 2.802099e-001, 1.285888e-002, 1.689016e+000  
1.288994e-002, 3.986322e-001, 1.288994e-002, 1.452018e+000  
1.292100e-002, 5.446133e-001, 1.292100e-002, 1.159923e+000  
1.295206e-002, 7.126133e-001, 1.295206e-002, 8.238238e-001  
1.298312e-002, 8.962497e-001, 1.298312e-002, 4.564833e-001  
1.301418e-002, 1.088554e+000, 1.301418e-002, 7.184764e-002  
1.304524e-002, 1.282222e+000, 1.304524e-002, -3.154813e-001  
1.307630e-002, 1.470124e+000, 1.307630e-002, -6.912457e-001  
1.310736e-002, 1.644686e+000, 1.310736e-002, -1.040286e+000  
1.313842e-002, 1.799577e+000, 1.313842e-002, -1.349946e+000  
1.316948e-002, 1.928838e+000, 1.316948e-002, -1.608328e+000  
1.320054e-002, 2.027575e+000, 1.320054e-002, -1.805632e+000  
1.323160e-002, 2.092035e+000, 1.323160e-002, -1.934372e+000  
1.326266e-002, 2.119781e+000, 1.326266e-002, -1.989669e+000  
1.329372e-002, 2.109759e+000, 1.329372e-002, -1.969431e+000  
1.332478e-002, 2.062969e+000, 1.332478e-002, -1.875661e+000  
1.335584e-002, 1.979686e+000, 1.335584e-002, -1.708915e+000  
1.338690e-002, 1.864219e+000, 1.338690e-002, -1.477821e+000  
1.341796e-002, 1.720699e+000, 1.341796e-002, -1.190651e+000  
1.344902e-002, 1.554582e+000, 1.344902e-002, -8.583108e-001  
1.348008e-002, 1.372170e+000, 1.348008e-002, -4.934196e-001  
1.351114e-002, 1.180437e+000, 1.351114e-002, -1.099151e-001  
1.354220e-002, 9.864605e-001, 1.354220e-002, 2.780336e-001  
1.357326e-002, 7.977927e-001, 1.357326e-002, 6.553191e-001  
1.360432e-002, 6.215712e-001, 1.360432e-002, 1.007687e+000  
1.363538e-002, 4.644747e-001, 1.363538e-002, 1.321765e+000  
1.366644e-002, 3.324709e-001, 1.366644e-002, 1.585635e+000  
1.369750e-002, 2.305616e-001, 1.369750e-002, 1.789286e+000  
1.372856e-002, 1.626184e-001, 1.372856e-002, 1.924994e+000  
1.375962e-002, 1.305490e-001, 1.375962e-002, 1.988941e+000  
1.379068e-002, 1.371331e-001, 1.379068e-002, 1.975576e+000  
1.382174e-002, 1.809703e-001, 1.382174e-002, 1.887709e+000  
1.385280e-002, 2.606395e-001, 1.385280e-002, 1.728192e+000  
1.388386e-002, 3.731108e-001, 1.388386e-002, 1.503088e+000  
1.391492e-002, 5.141131e-001, 1.391492e-002, 1.220948e+000  
1.394598e-002, 6.782897e-001, 1.394598e-002, 8.924868e-001  
1.397704e-002, 8.594080e-001, 1.397704e-002, 5.301778e-001  
1.400811e-002, 1.050590e+000, 1.400811e-002, 1.477767e-001  
1.403917e-002, 1.244579e+000, 1.403917e-002, -2.401993e-001  
1.407023e-002, 1.434009e+000, 1.407023e-002, -6.190228e-001  
1.410129e-002, 1.611694e+000, 1.410129e-002, -9.743148e-001  
1.413235e-002, 1.771299e+000, 1.413235e-002, -1.293423e+000  
1.416341e-002, 1.905839e+000, 1.416341e-002, -1.562363e+000  
1.419447e-002, 2.010886e+000, 1.419447e-002, -1.772288e+000  
1.422553e-002, 2.082288e+000, 1.422553e-002, -1.914914e+000  
1.425659e-002, 2.117344e+000, 1.425659e-002, -1.984834e+000  
1.428765e-002, 2.114724e+000, 1.428765e-002, -1.979400e+000  
1.431871e-002, 2.074534e+000, 1.431871e-002, -1.898826e+000  
1.434977e-002, 1.998299e+000, 1.434977e-002, -1.746177e+000  
1.438083e-002, 1.888920e+000, 1.438083e-002, -1.527254e+000  
1.441189e-002, 1.750547e+000, 1.441189e-002, -1.250372e+000  
1.444295e-002, 1.588737e+000, 1.444295e-002, -9.266355e-001  
1.447401e-002, 1.408830e+000, 1.447401e-002, -5.667446e-001  
1.450507e-002, 1.218313e+000, 1.450507e-002, -1.856698e-001  
1.453613e-002, 1.024267e+000, 1.453613e-002, 2.024180e-001  
1.456719e-002, 8.340668e-001, 1.456719e-002, 5.827869e-001  
1.459825e-002, 6.549225e-001, 1.459825e-002, 9.409993e-001  
1.462931e-002, 4.936409e-001, 1.462931e-002, 1.263460e+000  
1.466037e-002, 3.558462e-001, 1.466037e-002, 1.538919e+000  
1.469143e-002, 2.479020e-001, 1.469143e-002, 1.754644e+000  
1.472249e-002, 1.730659e-001, 1.472249e-002, 1.904136e+000  
1.475355e-002, 1.343716e-001, 1.475355e-002, 1.981331e+000  
1.478461e-002, 1.332882e-001, 1.478461e-002, 1.983304e+000  
1.481567e-002, 1.698489e-001, 1.481567e-002, 1.909989e+000  
1.484673e-002, 2.426660e-001, 1.484673e-002, 1.764174e+000  
1.487779e-002, 3.489691e-001, 1.487779e-002, 1.551401e+000  
1.490885e-002, 4.847235e-001, 1.490885e-002, 1.279752e+000  
1.493991e-002, 6.444609e-001, 1.493991e-002, 9.601588e-001  
1.497097e-002, 8.229466e-001, 1.497097e-002, 6.031066e-001  
1.500203e-002, 1.012730e+000, 1.500203e-002, 2.234969e-001  
1.503309e-002, 1.206759e+000, 1.503309e-002, -1.645614e-001  
1.506415e-002, 1.397661e+000, 1.506415e-002, -5.463373e-001  
1.509521e-002, 1.578198e+000, 1.509521e-002, -9.073400e-001  
1.512627e-002, 1.741512e+000, 1.512627e-002, -1.233868e+000  
1.515733e-002, 1.881894e+000, 1.515733e-002, -1.514504e+000  
1.518839e-002, 1.992902e+000, 1.518839e-002, -1.736360e+000  
1.521945e-002, 2.071144e+000, 1.521945e-002, -1.892665e+000  
1.525051e-002, 2.113462e+000, 1.525051e-002, -1.977106e+000  
1.528157e-002, 2.118248e+000, 1.528157e-002, -1.986487e+000  
1.531263e-002, 2.085331e+000, 1.531263e-002, -1.920456e+000  
1.534369e-002, 2.015958e+000, 1.534369e-002, -1.781529e+000  
1.537475e-002, 1.912770e+000, 1.537475e-002, -1.574984e+000  
1.540581e-002, 1.779683e+000, 1.540581e-002, -1.308668e+000  
1.543687e-002, 1.622077e+000, 1.543687e-002, -9.933338e-001  
1.546793e-002, 1.445077e+000, 1.546793e-002, -6.392507e-001  
1.549899e-002, 1.256098e+000, 1.549899e-002, -2.612444e-001  
1.553005e-002, 1.062155e+000, 1.553005e-002, 1.266432e-001  
1.556111e-002, 8.706214e-001, 1.556111e-002, 5.096874e-001  
1.559217e-002, 6.887560e-001, 1.559217e-002, 8.733488e-001  
1.562323e-002, 5.234698e-001, 1.562323e-002, 1.203825e+000  
1.565429e-002, 3.805515e-001, 1.565429e-002, 1.489537e+000  
1.568535e-002, 2.665191e-001, 1.568535e-002, 1.717443e+000  
1.571641e-002, 1.849003e-001, 1.571641e-002, 1.880504e+000  
1.574747e-002, 1.389749e-001, 1.574747e-002, 1.972162e+000  
1.577853e-002, 1.304865e-001, 1.577853e-002, 1.988946e+000  
1.580959e-002, 1.597492e-001, 1.580959e-002, 1.930225e+000  
1.584065e-002, 2.256524e-001, 1.584065e-002, 1.798236e+000  
1.587171e-002, 3.256876e-001, 1.587171e-002, 1.597995e+000  
1.590277e-002, 4.560583e-001, 1.590277e-002, 1.337108e+000  
1.593383e-002, 6.114759e-001, 1.593383e-002, 1.026148e+000  
1.596489e-002, 7.869248e-001, 1.596489e-002, 6.751637e-001  
1.599595e-002, 9.750320e-001, 1.599595e-002, 2.988983e-001  
1.602701e-002, 1.168816e+000, 1.602701e-002, -8.867727e-002  
1.605807e-002, 1.360913e+000, 1.605807e-002, -4.728503e-001  
1.608913e-002, 1.544040e+000, 1.608913e-002, -8.390383e-001  
1.612019e-002, 1.711238e+000, 1.612019e-002, -1.173343e+000  
1.615125e-002, 1.856641e+000, 1.615125e-002, -1.464027e+000  
1.618231e-002, 1.973656e+000, 1.618231e-002, -1.697899e+000  
1.621337e-002, 2.058622e+000, 1.621337e-002, -1.867657e+000  
1.624443e-002, 2.108139e+000, 1.624443e-002, -1.966499e+000  
1.627549e-002, 2.120326e+000, 1.627549e-002, -1.990681e+000  
1.630655e-002, 2.094730e+000, 1.630655e-002, -1.939291e+000  
1.633761e-002, 2.032320e+000, 1.633761e-002, -1.814289e+000  
1.636867e-002, 1.935474e+000, 1.636867e-002, -1.620424e+000  
1.639973e-002, 1.807867e+000, 1.639973e-002, -1.365063e+000  
1.643079e-002, 1.654695e+000, 1.643079e-002, -1.058591e+000  
1.646185e-002, 1.480861e+000, 1.646185e-002, -7.108325e-001  
1.649291e-002, 1.293695e+000, 1.649291e-002, -3.364452e-001  
1.652397e-002, 1.100139e+000, 1.652397e-002, 5.067741e-002  
1.655503e-002, 9.075496e-001, 1.655503e-002, 4.358394e-001  
1.658609e-002, 7.232277e-001, 1.658609e-002, 8.044209e-001  
1.661715e-002, 5.541772e-001, 1.661715e-002, 1.142433e+000  
1.664821e-002, 4.063430e-001, 1.664821e-002, 1.437982e+000  
1.667927e-002, 2.863883e-001, 1.667927e-002, 1.677737e+000  
1.671033e-002, 1.981050e-001, 1.671033e-002, 1.854130e+000  
1.674139e-002, 1.450146e-001, 1.674139e-002, 1.960120e+000  
1.677245e-002, 1.291330e-001, 1.677245e-002, 1.991691e+000  
1.680351e-002, 1.510544e-001, 1.680351e-002, 1.947652e+000  
1.683457e-002, 2.099472e-001, 1.683457e-002, 1.829681e+000  
1.686563e-002, 3.035684e-001, 1.686563e-002, 1.642264e+000  
1.689669e-002, 4.283652e-001, 1.689669e-002, 1.392521e+000  
1.692775e-002, 5.792360e-001, 1.692775e-002, 1.090649e+000  
1.695881e-002, 7.513918e-001, 1.695881e-002, 7.462441e-001  
1.698987e-002, 9.375491e-001, 1.698987e-002, 3.738712e-001  
1.702093e-002, 1.130806e+000, 1.702093e-002, -1.265741e-002  
1.705199e-002, 1.323818e+000, 1.705199e-002, -3.986683e-001  
1.708306e-002, 1.509268e+000, 1.708306e-002, -7.695092e-001  
1.711412e-002, 1.680108e+000, 1.711412e-002, -1.111105e+000  
1.714518e-002, 1.830320e+000, 1.714518e-002, -1.411412e+000  
1.717624e-002, 1.953171e+000, 1.717624e-002, -1.656962e+000  
1.720730e-002, 2.044740e+000, 1.720730e-002, -1.839927e+000  
1.723836e-002, 2.101384e+000, 1.723836e-002, -1.953027e+000  
1.726942e-002, 2.120955e+000, 1.726942e-002, -1.991976e+000  
1.730048e-002, 2.102717e+000, 1.730048e-002, -1.955304e+000  
1.733154e-002, 2.047363e+000, 1.733154e-002, -1.844409e+000  
1.736260e-002, 1.957000e+000, 1.736260e-002, -1.663508e+000  
1.739366e-002, 1.835532e+000, 1.739366e-002, -1.420413e+000  
1.742472e-002, 1.686379e+000, 1.742472e-002, -1.121981e+000  
1.745578e-002, 1.516127e+000, 1.745578e-002, -7.813857e-001  
1.748684e-002, 1.331048e+000, 1.748684e-002, -4.111628e-001  
1.751790e-002, 1.138162e+000, 1.751790e-002, -2.536890e-002  
1.754896e-002, 9.447972e-001, 1.754896e-002, 3.613504e-001  
1.758002e-002, 7.582876e-001, 1.758002e-002, 7.343157e-001  
1.761108e-002, 5.857179e-001, 1.761108e-002, 1.079371e+000  
1.764214e-002, 4.331832e-001, 1.764214e-002, 1.384328e+000  
1.767320e-002, 3.074807e-001, 1.767320e-002, 1.635583e+000  
1.770426e-002, 2.126590e-001, 1.770426e-002, 1.825053e+000  
1.773532e-002, 1.524832e-001, 1.773532e-002, 1.945222e+000  
1.776638e-002, 1.292287e-001, 1.776638e-002, 1.991536e+000  
1.779744e-002, 1.437782e-001, 1.779744e-002, 1.962244e+000  
1.782850e-002, 1.955722e-001, 1.782850e-002, 1.858465e+000  
1.785956e-002, 2.826445e-001, 1.785956e-002, 1.684146e+000  
1.789062e-002, 4.016835e-001, 1.789062e-002, 1.445910e+000  
1.792168e-002, 5.477875e-001, 1.792168e-002, 1.153567e+000  
1.795274e-002, 7.163994e-001, 1.795274e-002, 8.162444e-001  
1.798380e-002, 9.003388e-001, 1.798380e-002, 4.483065e-001  
1.801486e-002, 1.092782e+000, 1.801486e-002, 6.338771e-002  
1.804592e-002, 1.286432e+000, 1.804592e-002, -3.238993e-001  
1.807698e-002, 1.473931e+000, 1.807698e-002, -6.988534e-001  
1.810804e-002, 1.648169e+000, 1.810804e-002, -1.047243e+000  
1.813910e-002, 1.802528e+000, 1.813910e-002, -1.355847e+000  
1.817016e-002, 1.931677e+000, 1.817016e-002, -1.614007e+000  
1.820122e-002, 2.029516e+000, 1.820122e-002, -1.809515e+000  
1.823228e-002, 2.093207e+000, 1.823228e-002, -1.936709e+000  
1.826334e-002, 2.120133e+000, 1.826334e-002, -1.990371e+000  
1.829440e-002, 2.109281e+000, 1.829440e-002, -1.968470e+000  
1.832546e-002, 2.061063e+000, 1.832546e-002, -1.871845e+000  
1.835652e-002, 1.977316e+000, 1.835652e-002, -1.704172e+000  
1.838758e-002, 1.861219e+000, 1.838758e-002, -1.471822e+000  
1.841864e-002, 1.717185e+000, 1.841864e-002, -1.183619e+000  
1.844970e-002, 1.550681e+000, 1.844970e-002, -8.505099e-001  
1.848076e-002, 1.368194e+000, 1.848076e-002, -4.854588e-001  
1.851182e-002, 1.176172e+000, 1.851182e-002, -1.013852e-001  
1.854288e-002, 9.823129e-001, 1.854288e-002, 2.863285e-001  
1.857394e-002, 7.938840e-001, 1.857394e-002, 6.631351e-001  
1.860500e-002, 6.180475e-001, 1.860500e-002, 1.014733e+000  
1.863606e-002, 4.614669e-001, 1.863606e-002, 1.327777e+000  
1.866712e-002, 3.300918e-001, 1.866712e-002, 1.590390e+000  
1.869818e-002, 2.283190e-001, 1.869818e-002, 1.793774e+000  
1.872924e-002, 1.613684e-001, 1.872924e-002, 1.927490e+000  
1.876030e-002, 1.307767e-001, 1.876030e-002, 1.988480e+000  
1.879136e-002, 1.379288e-001, 1.879136e-002, 1.973979e+000  
1.882242e-002, 1.825512e-001, 1.882242e-002, 1.884545e+000  
1.885348e-002, 2.629442e-001, 1.885348e-002, 1.723579e+000  
1.888454e-002, 3.760546e-001, 1.888454e-002, 1.497198e+000  
1.891560e-002, 5.175841e-001, 1.891560e-002, 1.214002e+000  
1.894666e-002, 6.821596e-001, 1.894666e-002, 8.847460e-001  
1.897772e-002, 8.635308e-001, 1.897772e-002, 5.219310e-001  
1.900878e-002, 1.054812e+000, 1.900878e-002, 1.393320e-001  
1.903984e-002, 1.248743e+000, 1.903984e-002, -2.485265e-001  
1.907090e-002, 1.438154e+000, 1.907090e-002, -6.273162e-001  
1.910196e-002, 1.615460e+000, 1.910196e-002, -9.818511e-001  
1.913302e-002, 1.774204e+000, 1.913302e-002, -1.299223e+000  
1.916408e-002, 1.908284e+000, 1.916408e-002, -1.567246e+000  
1.919514e-002, 2.012619e+000, 1.919514e-002, -1.775751e+000  
1.922620e-002, 2.083247e+000, 1.922620e-002, -1.916829e+000  
1.925726e-002, 2.117494e+000, 1.925726e-002, -1.985129e+000  
1.928832e-002, 2.114059e+000, 1.928832e-002, -1.978066e+000  
1.931938e-002, 2.073679e+000, 1.931938e-002, -1.897112e+000  
1.935044e-002, 1.996393e+000, 1.935044e-002, -1.742358e+000  
1.938150e-002, 1.886311e+000, 1.938150e-002, -1.522031e+000  
1.941256e-002, 1.747335e+000, 1.941256e-002, -1.243945e+000  
1.944362e-002, 1.584749e+000, 1.944362e-002, -9.186614e-001  
1.947468e-002, 1.404722e+000, 1.947468e-002, -5.585321e-001  
1.950574e-002, 1.214091e+000, 1.950574e-002, -1.772296e-001  
1.953680e-002, 1.020091e+000, 1.953680e-002, 2.107704e-001  
1.956786e-002, 8.299048e-001, 1.956786e-002, 5.911127e-001  
1.959892e-002, 6.511195e-001, 1.959892e-002, 9.486106e-001  
1.962998e-002, 4.902738e-001, 1.962998e-002, 1.270195e+000  
1.966104e-002, 3.535343e-001, 1.966104e-002, 1.543531e+000  
1.969210e-002, 2.460968e-001, 1.969210e-002, 1.758249e+000  
1.972316e-002, 1.720287e-001, 1.972316e-002, 1.906202e+000  
1.975422e-002, 1.341451e-001, 1.975422e-002, 1.981782e+000  
1.978528e-002, 1.332414e-001, 1.978528e-002, 1.983394e+000  
1.981634e-002, 1.709004e-001, 1.981634e-002, 1.907882e+000  
1.984740e-002, 2.444976e-001, 1.984740e-002, 1.760504e+000  
1.987846e-002, 3.515137e-001, 1.987846e-002, 1.546310e+000  
1.990952e-002, 4.878797e-001, 1.990952e-002, 1.273435e+000  
1.994058e-002, 6.484201e-001, 1.994058e-002, 9.522436e-001  
1.997164e-002, 8.270360e-001, 1.997164e-002, 5.949312e-001  
2.000270e-002, 1.016949e+000, 2.000270e-002, 2.150642e-001  
2.003376e-002, 1.210945e+000, 2.003376e-002, -1.729363e-001  
2.006482e-002, 1.401837e+000, 2.006482e-002, -5.546925e-001  
2.009588e-002, 1.582037e+000, 2.009588e-002, -9.150232e-001  
2.012694e-002, 1.744932e+000, 2.012694e-002, -1.240702e+000  
2.015800e-002, 1.884273e+000, 2.015800e-002, -1.519253e+000  
2.018906e-002, 1.994779e+000, 2.018906e-002, -1.740105e+000  
2.022013e-002, 2.072255e+000, 2.022013e-002, -1.894881e+000  
2.025119e-002, 2.113767e+000, 2.025119e-002, -1.977713e+000  
2.028225e-002, 2.117737e+000, 2.028225e-002, -1.985460e+000  
2.031331e-002, 2.084634e+000, 2.031331e-002, -1.919060e+000  
2.034437e-002, 2.014202e+000, 2.034437e-002, -1.778010e+000  
2.037543e-002, 1.910294e+000, 2.037543e-002, -1.570027e+000  
2.040649e-002, 1.776582e+000, 2.040649e-002, -1.302463e+000  
2.043755e-002, 1.618149e+000, 2.043755e-002, -9.854804e-001  
2.046861e-002, 1.441007e+000, 2.046861e-002, -6.311151e-001  
2.049967e-002, 1.251885e+000, 2.049967e-002, -2.528219e-001  
2.053073e-002, 1.057958e+000, 2.053073e-002, 1.350379e-001  
2.056179e-002, 8.664317e-001, 2.056179e-002, 5.180689e-001  
2.059285e-002, 6.848825e-001, 2.059285e-002, 8.811012e-001  
2.062391e-002, 5.200041e-001, 2.062391e-002, 1.210757e+000  
2.065497e-002, 3.781041e-001, 2.065497e-002, 1.494420e+000  
2.068603e-002, 2.645743e-001, 2.068603e-002, 1.721327e+000  
2.071709e-002, 1.837130e-001, 2.071709e-002, 1.882870e+000  
2.074815e-002, 1.385936e-001, 2.074815e-002, 1.972923e+000  
2.077921e-002, 1.302787e-001, 2.077921e-002, 1.989358e+000  
2.081027e-002, 1.606388e-001, 2.081027e-002, 1.928442e+000  
2.084133e-002, 2.273325e-001, 2.084133e-002, 1.794869e+000  
2.087239e-002, 3.280970e-001, 2.087239e-002, 1.593174e+000  
2.090345e-002, 4.591009e-001, 2.090345e-002, 1.331018e+000  
2.093451e-002, 6.153717e-001, 2.093451e-002, 1.018360e+000  
2.096557e-002, 7.909726e-001, 2.096557e-002, 6.670707e-001  
2.099663e-002, 9.792389e-001, 2.099663e-002, 2.904889e-001  
2.102769e-002, 1.173021e+000, 2.102769e-002, -9.708890e-002  
2.105875e-002, 1.364964e+000, 2.105875e-002, -4.809500e-001  
2.108981e-002, 1.548047e+000, 2.108981e-002, -8.470601e-001  
2.112087e-002, 1.714751e+000, 2.112087e-002, -1.180370e+000  
2.115193e-002, 1.859152e+000, 2.115193e-002, -1.469042e+000  
2.118299e-002, 1.975671e+000, 2.118299e-002, -1.701921e+000  
2.121405e-002, 2.059883e+000, 2.121405e-002, -1.870173e+000  
2.124511e-002, 2.108599e+000, 2.124511e-002, -1.967415e+000  
2.127617e-002, 2.119969e+000, 2.127617e-002, -1.989963e+000  
2.130723e-002, 2.094192e+000, 2.130723e-002, -1.938214e+000  
2.133829e-002, 2.030717e+000, 2.133829e-002, -1.811076e+000  
2.136935e-002, 1.933135e+000, 2.136935e-002, -1.615741e+000  
2.140041e-002, 1.804882e+000, 2.140041e-002, -1.359090e+000  
2.143147e-002, 1.650834e+000, 2.143147e-002, -1.050870e+000  
2.146253e-002, 1.476835e+000, 2.146253e-002, -7.027848e-001  
2.149359e-002, 1.289496e+000, 2.149359e-002, -3.280516e-001  
2.152465e-002, 1.095926e+000, 2.152465e-002, 5.910312e-002  
2.155571e-002, 9.033382e-001, 2.155571e-002, 4.442646e-001  
2.158677e-002, 7.192897e-001, 2.158677e-002, 8.123025e-001  
2.161783e-002, 5.506183e-001, 2.161783e-002, 1.149551e+000  
2.164889e-002, 4.037638e-001, 2.164889e-002, 1.443128e+000  
2.167995e-002, 2.843063e-001, 2.167995e-002, 1.681895e+000  
2.171101e-002, 1.967690e-001, 2.171101e-002, 1.856794e+000  
2.174207e-002, 1.444789e-001, 2.174207e-002, 1.961190e+000  
2.177313e-002, 1.287645e-001, 2.177313e-002, 1.992425e+000  
2.180419e-002, 1.517806e-001, 2.180419e-002, 1.946196e+000  
2.183525e-002, 2.114731e-001, 2.183525e-002, 1.826623e+000  
2.186631e-002, 3.058389e-001, 2.186631e-002, 1.637721e+000  
2.189737e-002, 4.312895e-001, 2.189737e-002, 1.386668e+000  
2.192843e-002, 5.830628e-001, 2.192843e-002, 1.082998e+000  
2.195949e-002, 7.553928e-001, 2.195949e-002, 7.382444e-001  
2.199055e-002, 9.417386e-001, 2.199055e-002, 3.654964e-001  
2.202161e-002, 1.135023e+000, 2.202161e-002, -2.109438e-002  
2.205267e-002, 1.327912e+000, 2.205267e-002, -4.068524e-001  
2.208373e-002, 1.513325e+000, 2.208373e-002, -7.776298e-001  
2.211479e-002, 1.683712e+000, 2.211479e-002, -1.118312e+000  
2.214585e-002, 1.832964e+000, 2.214585e-002, -1.416688e+000  
2.217691e-002, 1.955321e+000, 2.217691e-002, -1.661256e+000  
2.220797e-002, 2.046149e+000, 2.220797e-002, -1.842738e+000  
2.223903e-002, 2.101997e+000, 2.223903e-002, -1.954251e+000  
2.227009e-002, 2.120754e+000, 2.227009e-002, -1.991568e+000  
2.230115e-002, 2.101706e+000, 2.230115e-002, -1.953280e+000  
2.233221e-002, 2.046175e+000, 2.233221e-002, -1.842029e+000  
2.236327e-002, 1.954802e+000, 2.236327e-002, -1.659106e+000  
2.239433e-002, 1.832197e+000, 2.239433e-002, -1.413742e+000  
2.242539e-002, 1.682754e+000, 2.242539e-002, -1.114734e+000  
2.245645e-002, 1.512155e+000, 2.245645e-002, -7.734367e-001  
2.248751e-002, 1.326870e+000, 2.248751e-002, -4.028096e-001  
2.251857e-002, 1.133941e+000, 2.251857e-002, -1.692352e-002  
2.254963e-002, 9.406843e-001, 2.254963e-002, 3.695725e-001  
2.258069e-002, 7.542074e-001, 2.258069e-002, 7.424814e-001  
2.261175e-002, 5.820718e-001, 2.261175e-002, 1.086665e+000  
2.264281e-002, 4.304791e-001, 2.264281e-002, 1.389731e+000  
2.267387e-002, 3.052625e-001, 2.267387e-002, 1.640011e+000  
2.270493e-002, 2.111796e-001, 2.270493e-002, 1.828011e+000  
2.273599e-002, 1.517910e-001, 2.273599e-002, 1.946600e+000  
2.276705e-002, 1.293542e-001, 2.276705e-002, 1.991283e+000  
2.279811e-002, 1.440743e-001, 2.279811e-002, 1.961648e+000  
2.282917e-002, 1.969427e-001, 2.282917e-002, 1.855720e+000  
2.286023e-002, 2.847704e-001, 2.286023e-002, 1.679888e+000  
2.289129e-002, 4.044866e-001, 2.289129e-002, 1.440303e+000  
2.292235e-002, 5.515396e-001, 2.292235e-002, 1.146065e+000  
2.295341e-002, 7.203490e-001, 2.295341e-002, 8.083489e-001  
2.298447e-002, 9.045014e-001, 2.298447e-002, 4.399776e-001  
2.301553e-002, 1.097009e+000, 2.301553e-002, 5.493674e-002  
2.304659e-002, 1.290560e+000, 2.304659e-002, -3.321567e-001  
2.307765e-002, 1.478033e+000, 2.307765e-002, -7.070612e-001  
2.310871e-002, 1.651856e+000, 2.310871e-002, -1.054621e+000  
2.313977e-002, 1.805740e+000, 2.313977e-002, -1.362266e+000  
2.317083e-002, 1.933761e+000, 2.317083e-002, -1.618168e+000  
2.320189e-002, 2.031071e+000, 2.320189e-002, -1.812618e+000  
2.323295e-002, 2.093973e+000, 2.323295e-002, -1.938240e+000  
2.326401e-002, 2.120087e+000, 2.326401e-002, -1.990273e+000  
2.329507e-002, 2.108421e+000, 2.329507e-002, -1.966748e+000  
2.332614e-002, 2.060031e+000, 2.332614e-002, -1.869777e+000  
2.335720e-002, 1.975262e+000, 2.335720e-002, -1.700059e+000  
2.338826e-002, 1.858482e+000, 2.338826e-002, -1.466340e+000  
2.341932e-002, 1.713866e+000, 2.341932e-002, -1.176980e+000  
2.345038e-002, 1.546912e+000, 2.345038e-002, -8.429682e-001  
2.348144e-002, 1.363955e+000, 2.348144e-002, -4.769870e-001  
2.351250e-002, 1.171981e+000, 2.351250e-002, -9.300156e-002  
2.354356e-002, 9.780944e-001, 2.354356e-002, 2.947654e-001  
2.357462e-002, 7.898323e-001, 2.357462e-002, 6.712384e-001  
2.360568e-002, 6.143174e-001, 2.360568e-002, 1.022191e+000  
2.363674e-002, 4.582023e-001, 2.363674e-002, 1.334304e+000  
2.366780e-002, 3.274178e-001, 2.366780e-002, 1.595734e+000  
2.369886e-002, 2.269190e-001, 2.369886e-002, 1.796563e+000  
2.372992e-002, 1.605242e-001, 2.372992e-002, 1.929174e+000  
2.376098e-002, 1.300883e-001, 2.376098e-002, 1.989854e+000  
2.379204e-002, 1.383249e-001, 2.379204e-002, 1.973183e+000  
2.382310e-002, 1.837625e-001, 2.382310e-002, 1.882116e+000  
2.385416e-002, 2.649263e-001, 2.385416e-002, 1.719612e+000  
2.388522e-002, 3.787291e-001, 2.388522e-002, 1.491845e+000  
2.391628e-002, 5.208502e-001, 2.391628e-002, 1.207468e+000  
2.394734e-002, 6.858901e-001, 2.394734e-002, 8.772821e-001  
2.397840e-002, 8.675835e-001, 2.397840e-002, 5.138242e-001  
2.400946e-002, 1.059031e+000, 2.400946e-002, 1.308939e-001  
2.404052e-002, 1.252965e+000, 2.404052e-002, -2.569715e-001  
2.407158e-002, 1.442024e+000, 2.407158e-002, -6.350489e-001  
2.410264e-002, 1.619032e+000, 2.410264e-002, -9.889878e-001  
2.413370e-002, 1.777685e+000, 2.413370e-002, -1.306188e+000  
2.416476e-002, 1.911021e+000, 2.416476e-002, -1.572719e+000  
2.419582e-002, 2.014673e+000, 2.419582e-002, -1.779855e+000  
2.422688e-002, 2.084537e+000, 2.422688e-002, -1.919405e+000  
2.425794e-002, 2.117971e+000, 2.425794e-002, -1.986079e+000  
2.428900e-002, 2.113705e+000, 2.428900e-002, -1.977354e+000  
2.432006e-002, 2.071908e+000, 2.432006e-002, -1.893566e+000  
2.435112e-002, 1.994165e+000, 2.435112e-002, -1.737902e+000  
2.438218e-002, 1.883435e+000, 2.438218e-002, -1.516278e+000  
2.441324e-002, 1.743920e+000, 2.441324e-002, -1.237111e+000  
2.444430e-002, 1.581209e+000, 2.444430e-002, -9.115762e-001  
2.447536e-002, 1.400697e+000, 2.447536e-002, -5.504759e-001  
2.450642e-002, 1.209883e+000, 2.450642e-002, -1.688102e-001  
2.453748e-002, 1.015861e+000, 2.453748e-002, 2.192295e-001  
2.456854e-002, 8.260020e-001, 2.456854e-002, 5.989134e-001  
2.459960e-002, 6.475051e-001, 2.459960e-002, 9.558300e-001  
2.463066e-002, 4.871517e-001, 2.463066e-002, 1.276433e+000  
2.466172e-002, 3.505319e-001, 2.466172e-002, 1.549541e+000  
2.469278e-002, 2.439717e-001, 2.469278e-002, 1.762497e+000  
2.472384e-002, 1.706615e-001, 2.472384e-002, 1.908937e+000  
2.475490e-002, 1.335843e-001, 2.475490e-002, 1.982897e+000  
2.478596e-002, 1.341473e-001, 2.478596e-002, 1.981577e+000  
2.481702e-002, 1.723220e-001, 2.481702e-002, 1.905034e+000  
2.484808e-002, 2.466590e-001, 2.484808e-002, 1.756180e+000  
2.487914e-002, 3.543307e-001, 2.487914e-002, 1.540671e+000  
2.491020e-002, 4.912501e-001, 2.491020e-002, 1.266693e+000  
2.494126e-002, 6.519139e-001, 2.494126e-002, 9.452485e-001  
2.497232e-002, 8.310345e-001, 2.497232e-002, 5.869287e-001  
2.500338e-002, 1.021144e+000, 2.500338e-002, 2.066667e-001  
2.503444e-002, 1.215182e+000, 2.503444e-002, -1.814061e-001  
2.506550e-002, 1.405773e+000, 2.506550e-002, -5.625584e-001  
2.509656e-002, 1.585692e+000, 2.509656e-002, -9.223229e-001  
2.512762e-002, 1.748103e+000, 2.512762e-002, -1.247045e+000  
2.515868e-002, 1.887333e+000, 2.515868e-002, -1.525375e+000  
2.518974e-002, 1.996975e+000, 2.518974e-002, -1.744496e+000  
2.522080e-002, 2.073702e+000, 2.522080e-002, -1.897773e+000  
2.525186e-002, 2.114409e+000, 2.525186e-002, -1.978993e+000  
2.528292e-002, 2.117549e+000, 2.528292e-002, -1.985080e+000  
2.531398e-002, 2.083012e+000, 2.531398e-002, -1.915810e+000  
2.534504e-002, 2.012107e+000, 2.534504e-002, -1.773820e+000  
2.537610e-002, 1.907533e+000, 2.537610e-002, -1.564505e+000  
2.540716e-002, 1.773259e+000, 2.540716e-002, -1.295815e+000  
2.543822e-002, 1.614701e+000, 2.543822e-002, -9.785780e-001  
2.546928e-002, 1.437038e+000, 2.546928e-002, -6.231694e-001  
2.550034e-002, 1.247701e+000, 2.550034e-002, -2.444495e-001  
2.553140e-002, 1.053719e+000, 2.553140e-002, 1.435152e-001  
2.556246e-002, 8.624652e-001, 2.556246e-002, 5.259972e-001  
2.559352e-002, 6.811893e-001, 2.559352e-002, 8.884787e-001  
2.562458e-002, 5.167791e-001, 2.562458e-002, 1.217202e+000  
2.565564e-002, 3.749904e-001, 2.565564e-002, 1.500653e+000  
2.568670e-002, 2.623067e-001, 2.568670e-002, 1.725860e+000  
2.571776e-002, 1.821894e-001, 2.571776e-002, 1.885917e+000  
2.574882e-002, 1.378681e-001, 2.574882e-002, 1.974367e+000  
2.577988e-002, 1.310254e-001, 2.577988e-002, 1.987860e+000  
2.581094e-002, 1.619132e-001, 2.581094e-002, 1.925889e+000  
2.584200e-002, 2.293593e-001, 2.584200e-002, 1.790814e+000  
2.587306e-002, 3.307970e-001, 2.587306e-002, 1.587769e+000  
2.590412e-002, 4.623762e-001, 2.590412e-002, 1.324466e+000  
2.593518e-002, 6.187717e-001, 2.593518e-002, 1.011553e+000  
2.596624e-002, 7.949127e-001, 2.596624e-002, 6.591848e-001  
2.599730e-002, 9.834078e-001, 2.599730e-002, 2.821449e-001  
2.602836e-002, 1.177263e+000, 2.602836e-002, -1.055704e-001  
2.605942e-002, 1.369110e+000, 2.605942e-002, -4.892430e-001  
2.609048e-002, 1.551677e+000, 2.609048e-002, -8.543096e-001  
2.612154e-002, 1.718026e+000, 2.612154e-002, -1.186915e+000  
2.615260e-002, 1.862323e+000, 2.615260e-002, -1.475383e+000  
2.618366e-002, 1.978007e+000, 2.618366e-002, -1.706594e+000  
2.621472e-002, 2.061485e+000, 2.621472e-002, -1.873375e+000  
2.624578e-002, 2.109405e+000, 2.624578e-002, -1.969023e+000  
2.627684e-002, 2.119948e+000, 2.627684e-002, -1.989916e+000  
2.630790e-002, 2.092721e+000, 2.630790e-002, -1.935267e+000  
2.633896e-002, 2.028758e+000, 2.633896e-002, -1.807157e+000  
2.637002e-002, 1.930494e+000, 2.637002e-002, -1.610456e+000  
2.640108e-002, 1.801657e+000, 2.640108e-002, -1.352637e+000  
2.643215e-002, 1.647482e+000, 2.643215e-002, -1.044160e+000  
2.646321e-002, 1.472927e+000, 2.646321e-002, -6.949617e-001  
2.649427e-002, 1.285343e+000, 2.649427e-002, -3.197392e-001  
2.652533e-002, 1.091685e+000, 2.652533e-002, 6.758553e-002  
2.655639e-002, 8.993137e-001, 2.655639e-002, 4.523091e-001  
2.658745e-002, 7.155225e-001, 2.658745e-002, 8.198281e-001  
2.661851e-002, 5.472943e-001, 2.661851e-002, 1.156194e+000  
2.664957e-002, 4.005432e-001, 2.664957e-002, 1.449575e+000  
2.668063e-002, 2.818998e-001, 2.668063e-002, 1.686707e+000  
2.671169e-002, 1.950913e-001, 2.671169e-002, 1.860149e+000  
2.674275e-002, 1.435898e-001, 2.674275e-002, 1.962962e+000  
2.677381e-002, 1.293507e-001, 2.677381e-002, 1.991247e+000  
2.680487e-002, 1.529062e-001, 2.680487e-002, 1.943940e+000  
2.683593e-002, 2.133627e-001, 2.683593e-002, 1.822842e+000  
2.686699e-002, 3.084182e-001, 2.686699e-002, 1.632558e+000  
2.689805e-002, 4.344652e-001, 2.689805e-002, 1.380315e+000  
2.692911e-002, 5.863639e-001, 2.692911e-002, 1.076389e+000  
2.696017e-002, 7.592685e-001, 2.696017e-002, 7.304873e-001  
2.699123e-002, 9.458742e-001, 2.699123e-002, 3.572188e-001  
2.702229e-002, 1.139265e+000, 2.702229e-002, -2.957445e-002  
2.705335e-002, 1.332089e+000, 2.705335e-002, -4.152089e-001  
2.708441e-002, 1.517038e+000, 2.708441e-002, -7.850468e-001  
2.711547e-002, 1.687084e+000, 2.711547e-002, -1.125051e+000  
2.714653e-002, 1.836236e+000, 2.714653e-002, -1.423238e+000  
2.717759e-002, 1.957796e+000, 2.717759e-002, -1.666203e+000  
2.720865e-002, 2.047903e+000, 2.720865e-002, -1.846246e+000  
2.723971e-002, 2.102968e+000, 2.723971e-002, -1.956185e+000  
2.727077e-002, 2.120898e+000, 2.727077e-002, -1.991854e+000  
2.730183e-002, 2.101022e+000, 2.730183e-002, -1.951906e+000  
2.733289e-002, 2.044095e+000, 2.733289e-002, -1.837865e+000  
2.736395e-002, 1.952283e+000, 2.736395e-002, -1.654066e+000  
2.739501e-002, 1.829535e+000, 2.739501e-002, -1.408413e+000  
2.742607e-002, 1.679337e+000, 2.742607e-002, -1.107893e+000  
2.745713e-002, 1.508310e+000, 2.745713e-002, -7.657485e-001  
2.748819e-002, 1.322752e+000, 2.748819e-002, -3.945699e-001  
2.751925e-002, 1.129702e+000, 2.751925e-002, -8.449053e-003  
2.755031e-002, 9.364935e-001, 2.755031e-002, 3.779561e-001  
2.758137e-002, 7.504551e-001, 2.758137e-002, 7.499781e-001  
2.761243e-002, 5.786530e-001, 2.761243e-002, 1.093497e+000  
2.764349e-002, 4.271531e-001, 2.764349e-002, 1.396382e+000  
2.767455e-002, 3.027226e-001, 2.767455e-002, 1.645093e+000  
2.770561e-002, 2.093469e-001, 2.770561e-002, 1.831670e+000  
2.773667e-002, 1.507423e-001, 2.773667e-002, 1.948696e+000  
2.776773e-002, 1.291249e-001, 2.776773e-002, 1.991735e+000  
2.779879e-002, 1.453151e-001, 2.779879e-002, 1.959162e+000  
2.782985e-002, 1.986914e-001, 2.782985e-002, 1.852219e+000  
2.786091e-002, 2.872277e-001, 2.786091e-002, 1.674973e+000  
2.789197e-002, 4.075568e-001, 2.789197e-002, 1.434158e+000  
2.792303e-002, 5.547372e-001, 2.792303e-002, 1.139663e+000  
2.795409e-002, 7.241535e-001, 2.795409e-002, 8.007325e-001  
2.798515e-002, 9.086013e-001, 2.798515e-002, 4.317791e-001  
2.801621e-002, 1.101240e+000, 2.801621e-002, 4.647115e-002  
2.804727e-002, 1.294765e+000, 2.804727e-002, -3.405640e-001  
2.807833e-002, 1.481823e+000, 2.807833e-002, -7.146349e-001  
2.810939e-002, 1.655321e+000, 2.810939e-002, -1.061544e+000  
2.814045e-002, 1.808669e+000, 2.814045e-002, -1.368125e+000  
2.817151e-002, 1.936575e+000, 2.817151e-002, -1.623795e+000  
2.820257e-002, 2.032975e+000, 2.820257e-002, -1.816426e+000  
2.823363e-002, 2.095105e+000, 2.823363e-002, -1.940497e+000  
2.826469e-002, 2.120398e+000, 2.826469e-002, -1.990891e+000  
2.829575e-002, 2.107902e+000, 2.829575e-002, -1.965704e+000  
2.832681e-002, 2.058094e+000, 2.832681e-002, -1.865899e+000  
2.835787e-002, 1.972868e+000, 2.835787e-002, -1.695270e+000  
2.838893e-002, 1.855462e+000, 2.838893e-002, -1.460302e+000  
2.841999e-002, 1.710337e+000, 2.841999e-002, -1.169919e+000  
2.845105e-002, 1.543002e+000, 2.845105e-002, -8.351475e-001  
2.848211e-002, 1.359966e+000, 2.848211e-002, -4.690018e-001  
2.851317e-002, 1.167719e+000, 2.851317e-002, -8.447802e-002  
2.854423e-002, 9.739533e-001, 2.854423e-002, 3.030463e-001  
2.857529e-002, 7.859352e-001, 2.857529e-002, 6.790301e-001  
2.860635e-002, 6.108104e-001, 2.860635e-002, 1.029203e+000  
2.863741e-002, 4.552156e-001, 2.863741e-002, 1.340274e+000  
2.866847e-002, 3.250630e-001, 2.866847e-002, 1.600441e+000  
2.869953e-002, 2.247062e-001, 2.869953e-002, 1.800992e+000  
2.873059e-002, 1.593141e-001, 2.873059e-002, 1.931591e+000  
2.876165e-002, 1.303513e-001, 2.876165e-002, 1.989322e+000  
2.879271e-002, 1.391487e-001, 2.879271e-002, 1.971531e+000  
2.882377e-002, 1.853695e-001, 2.882377e-002, 1.878900e+000  
2.885483e-002, 2.672542e-001, 2.885483e-002, 1.714951e+000  
2.888589e-002, 3.816926e-001, 2.888589e-002, 1.485916e+000  
2.891695e-002, 5.243365e-001, 2.891695e-002, 1.200492e+000  
2.894801e-002, 6.897704e-001, 2.894801e-002, 8.695206e-001  
2.897907e-002, 8.717113e-001, 2.897907e-002, 5.055672e-001  
2.901013e-002, 1.063253e+000, 2.901013e-002, 1.224500e-001  
2.904119e-002, 1.257123e+000, 2.904119e-002, -2.652870e-001  
2.907225e-002, 1.445963e+000, 2.907225e-002, -6.429254e-001  
2.910331e-002, 1.622911e+000, 2.910331e-002, -9.967495e-001  
2.913437e-002, 1.780560e+000, 2.913437e-002, -1.311935e+000  
2.916543e-002, 1.913442e+000, 2.916543e-002, -1.577554e+000  
2.919649e-002, 2.016379e+000, 2.919649e-002, -1.783265e+000  
2.922755e-002, 2.085470e+000, 2.922755e-002, -1.921264e+000  
2.925861e-002, 2.118092e+000, 2.925861e-002, -1.986318e+000  
2.928967e-002, 2.113013e+000, 2.928967e-002, -1.975964e+000  
2.932073e-002, 2.070426e+000, 2.932073e-002, -1.890600e+000  
2.935179e-002, 1.991953e+000, 2.935179e-002, -1.733472e+000  
2.938285e-002, 1.881037e+000, 2.938285e-002, -1.511475e+000  
2.941391e-002, 1.740683e+000, 2.941391e-002, -1.230630e+000  
2.944497e-002, 1.577209e+000, 2.944497e-002, -9.035784e-001  
2.947603e-002, 1.396584e+000, 2.947603e-002, -5.422522e-001  
2.950709e-002, 1.205660e+000, 2.950709e-002, -1.603699e-001  
2.953816e-002, 1.011691e+000, 2.953816e-002, 2.275713e-001  
2.956922e-002, 8.220340e-001, 2.956922e-002, 6.068451e-001  
2.960028e-002, 6.438926e-001, 2.960028e-002, 9.630556e-001  
2.963134e-002, 4.836319e-001, 2.963134e-002, 1.283475e+000  
2.966240e-002, 3.482534e-001, 2.966240e-002, 1.554092e+000  
2.969346e-002, 2.421916e-001, 2.969346e-002, 1.766049e+000  
2.972452e-002, 1.696537e-001, 2.972452e-002, 1.910947e+000  
2.975558e-002, 1.333852e-001, 2.975558e-002, 1.983291e+000  
2.978664e-002, 1.347634e-001, 2.978664e-002, 1.980341e+000  
2.981770e-002, 1.737299e-001, 2.981770e-002, 1.902215e+000  
2.984876e-002, 2.488057e-001, 2.984876e-002, 1.751883e+000  
2.987982e-002, 3.571359e-001, 2.987982e-002, 1.535058e+000  
2.991088e-002, 4.942228e-001, 2.991088e-002, 1.260739e+000  
2.994194e-002, 6.558831e-001, 2.994194e-002, 9.373084e-001  
2.997300e-002, 8.351306e-001, 2.997300e-002, 5.787411e-001  
3.000406e-002, 1.025363e+000, 3.000406e-002, 1.982327e-001  
3.003512e-002, 1.219364e+000, 3.003512e-002, -1.897714e-001  
3.006618e-002, 1.409766e+000, 3.006618e-002, -5.705427e-001  
3.009724e-002, 1.589345e+000, 3.009724e-002, -9.296281e-001  
3.012830e-002, 1.751282e+000, 3.012830e-002, -1.253399e+000  
3.015936e-002, 1.889900e+000, 3.015936e-002, -1.530506e+000  
3.019042e-002, 1.998823e+000, 3.019042e-002, -1.748189e+000  
3.022148e-002, 2.074786e+000, 3.022148e-002, -1.899934e+000  
3.025254e-002, 2.114685e+000, 3.025254e-002, -1.979542e+000  
3.028360e-002, 2.117011e+000, 3.028360e-002, -1.983997e+000  
3.031466e-002, 2.081676e+000, 3.031466e-002, -1.913137e+000  
3.034572e-002, 2.010028e+000, 3.034572e-002, -1.769656e+000  
3.037678e-002, 1.904786e+000, 3.037678e-002, -1.559007e+000  
3.040784e-002, 1.769949e+000, 3.040784e-002, -1.289190e+000  
3.043890e-002, 1.610635e+000, 3.043890e-002, -9.704498e-001  
3.046996e-002, 1.433080e+000, 3.046996e-002, -6.152533e-001  
3.050102e-002, 1.243489e+000, 3.050102e-002, -2.360247e-001  
3.053208e-002, 1.049529e+000, 3.053208e-002, 1.519012e-001  
3.056314e-002, 8.584457e-001, 3.056314e-002, 5.340313e-001  
3.059420e-002, 6.774988e-001, 3.059420e-002, 8.958610e-001  
3.062526e-002, 5.135484e-001, 3.062526e-002, 1.223657e+000  
3.065632e-002, 3.728228e-001, 3.065632e-002, 1.504980e+000  
3.068738e-002, 2.601321e-001, 3.068738e-002, 1.730208e+000  
3.071844e-002, 1.810320e-001, 3.071844e-002, 1.888228e+000  
3.074950e-002, 1.375151e-001, 3.074950e-002, 1.975071e+000  
3.078056e-002, 1.314870e-001, 3.078056e-002, 1.986931e+000  
3.081162e-002, 1.631748e-001, 3.081162e-002, 1.923363e+000  
3.084268e-002, 2.313709e-001, 3.084268e-002, 1.786786e+000  
3.087374e-002, 3.334856e-001, 3.087374e-002, 1.582390e+000  
3.090480e-002, 4.656388e-001, 3.090480e-002, 1.317937e+000  
3.093586e-002, 6.228136e-001, 3.093586e-002, 1.003472e+000  
3.096692e-002, 7.990408e-001, 3.096692e-002, 6.509319e-001  
3.099798e-002, 9.876313e-001, 3.099798e-002, 2.737027e-001  
3.102904e-002, 1.181460e+000, 3.102904e-002, -1.139716e-001  
3.106010e-002, 1.373150e+000, 3.106010e-002, -4.973243e-001  
3.109116e-002, 1.555406e+000, 3.109116e-002, -8.617667e-001  
3.112222e-002, 1.721305e+000, 3.112222e-002, -1.193469e+000  
3.115328e-002, 1.864558e+000, 3.115328e-002, -1.479843e+000  
3.118434e-002, 1.979724e+000, 3.118434e-002, -1.710021e+000  
3.121540e-002, 2.062437e+000, 3.121540e-002, -1.875270e+000  
3.124646e-002, 2.109555e+000, 3.124646e-002, -1.969321e+000  
3.127752e-002, 2.119886e+000, 3.127752e-002, -1.989788e+000  
3.130858e-002, 2.091534e+000, 3.130858e-002, -1.932889e+000  
3.133964e-002, 2.026816e+000, 3.133964e-002, -1.803265e+000  
3.137070e-002, 1.927865e+000, 3.137070e-002, -1.605197e+000  
3.140176e-002, 1.798444e+000, 3.140176e-002, -1.346206e+000  
3.143282e-002, 1.643465e+000, 3.143282e-002, -1.036129e+000  
3.146388e-002, 1.468814e+000, 3.146388e-002, -6.867382e-001  
3.149494e-002, 1.281120e+000, 3.149494e-002, -3.112990e-001  
3.152600e-002, 1.087510e+000, 3.152600e-002, 7.593602e-002  
3.155706e-002, 8.953327e-001, 3.155706e-002, 4.602672e-001  
3.158812e-002, 7.116399e-001, 3.158812e-002, 8.275982e-001  
3.161918e-002, 5.439687e-001, 3.161918e-002, 1.162846e+000  
3.165024e-002, 3.982442e-001, 3.165024e-002, 1.454167e+000  
3.168130e-002, 2.801154e-001, 3.168130e-002, 1.690267e+000  
3.171236e-002, 1.940700e-001, 3.171236e-002, 1.862186e+000  
3.174342e-002, 1.433665e-001, 3.174342e-002, 1.963404e+000  
3.177448e-002, 1.299313e-001, 3.177448e-002, 1.990082e+000  
3.180554e-002, 1.536971e-001, 3.180554e-002, 1.942356e+000  
3.183660e-002, 2.152364e-001, 3.183660e-002, 1.819089e+000  
3.186766e-002, 3.109846e-001, 3.186766e-002, 1.627420e+000  
3.189872e-002, 4.376283e-001, 3.189872e-002, 1.373986e+000  
3.192978e-002, 5.903540e-001, 3.192978e-002, 1.068410e+000  
3.196084e-002, 7.633664e-001, 3.196084e-002, 7.222955e-001  
3.199190e-002, 9.500940e-001, 3.199190e-002, 3.487830e-001  
3.202296e-002, 1.143451e+000, 3.202296e-002, -3.794791e-002  
3.205402e-002, 1.336221e+000, 3.205402e-002, -4.234756e-001  
3.208508e-002, 1.520835e+000, 3.208508e-002, -7.926458e-001  
3.211614e-002, 1.690457e+000, 3.211614e-002, -1.131798e+000  
3.214720e-002, 1.838603e+000, 3.214720e-002, -1.427961e+000  
3.217826e-002, 1.959645e+000, 3.217826e-002, -1.669896e+000  
3.220932e-002, 2.048996e+000, 3.220932e-002, -1.848424e+000  
3.224038e-002, 2.103262e+000, 3.224038e-002, -1.956772e+000  
3.227144e-002, 2.120985e+000, 3.227144e-002, -1.992024e+000  
3.230250e-002, 2.099985e+000, 3.230250e-002, -1.949827e+000  
3.233356e-002, 2.042290e+000, 3.233356e-002, -1.834251e+000  
3.236462e-002, 1.949777e+000, 3.236462e-002, -1.649052e+000  
3.239568e-002, 1.825960e+000, 3.239568e-002, -1.401266e+000  
3.242674e-002, 1.675541e+000, 3.242674e-002, -1.100303e+000  
3.245780e-002, 1.504233e+000, 3.245780e-002, -7.575908e-001  
3.248886e-002, 1.318537e+000, 3.248886e-002, -3.861410e-001  
3.251992e-002, 1.125506e+000, 3.251992e-002, -5.499872e-005  
3.255098e-002, 9.324646e-001, 3.255098e-002, 3.860109e-001  
3.258204e-002, 7.465179e-001, 3.258204e-002, 7.578570e-001  
3.261310e-002, 5.752338e-001, 3.261310e-002, 1.100337e+000  
3.264417e-002, 4.247243e-001, 3.264417e-002, 1.401234e+000  
3.267523e-002, 3.008060e-001, 3.267523e-002, 1.648917e+000  
3.270629e-002, 2.081864e-001, 3.270629e-002, 1.833989e+000  
3.273735e-002, 1.503733e-001, 3.273735e-002, 1.949428e+000  
3.276841e-002, 1.295632e-001, 3.276841e-002, 1.990856e+000  
3.279947e-002, 1.459584e-001, 3.279947e-002, 1.957871e+000  
3.283053e-002, 2.004262e-001, 3.283053e-002, 1.848745e+000  
3.286159e-002, 2.896690e-001, 3.286159e-002, 1.670084e+000  
3.289265e-002, 4.106165e-001, 3.289265e-002, 1.428037e+000  
3.292371e-002, 5.586717e-001, 3.292371e-002, 1.131796e+000  
3.295477e-002, 7.282160e-001, 3.295477e-002, 7.926114e-001  
3.298583e-002, 9.128098e-001, 3.298583e-002, 4.233595e-001  
3.301689e-002, 1.105448e+000, 3.301689e-002, 3.805891e-002  
3.304795e-002, 1.298920e+000, 3.304795e-002, -3.488795e-001  
3.307901e-002, 1.485688e+000, 3.307901e-002, -7.223657e-001  
3.311007e-002, 1.658785e+000, 3.311007e-002, -1.068474e+000  
3.314113e-002, 1.811608e+000, 3.314113e-002, -1.373996e+000  
3.317219e-002, 1.938350e+000, 3.317219e-002, -1.627337e+000  
3.320325e-002, 2.034209e+000, 3.320325e-002, -1.818885e+000  
3.323431e-002, 2.095544e+000, 3.323431e-002, -1.941373e+000  
3.326537e-002, 2.120633e+000, 3.326537e-002, -1.991360e+000  
3.329643e-002, 2.107016e+000, 3.329643e-002, -1.963927e+000  
3.332749e-002, 2.056431e+000, 3.332749e-002, -1.862567e+000  
3.335855e-002, 1.970489e+000, 3.335855e-002, -1.690508e+000  
3.338961e-002, 1.852458e+000, 3.338961e-002, -1.454288e+000  
3.342067e-002, 1.706818e+000, 3.342067e-002, -1.162879e+000  
3.345173e-002, 1.539102e+000, 3.345173e-002, -8.273443e-001  
3.348279e-002, 1.355675e+000, 3.348279e-002, -4.604249e-001  
3.351385e-002, 1.163503e+000, 3.351385e-002, -7.605000e-002  
3.354491e-002, 9.698788e-001, 3.354491e-002, 3.111888e-001  
3.357597e-002, 7.819492e-001, 3.357597e-002, 6.870079e-001  
3.360703e-002, 6.073016e-001, 3.360703e-002, 1.036221e+000  
3.363809e-002, 4.522235e-001, 3.363809e-002, 1.346257e+000  
3.366915e-002, 3.226993e-001, 3.366915e-002, 1.605164e+000  
3.370021e-002, 2.236377e-001, 3.370021e-002, 1.803119e+000  
3.373127e-002, 1.588008e-001, 3.373127e-002, 1.932612e+000  
3.376233e-002, 1.306438e-001, 3.376233e-002, 1.988731e+000  
3.379339e-002, 1.402365e-001, 3.379339e-002, 1.969353e+000  
3.382445e-002, 1.866526e-001, 3.382445e-002, 1.876329e+000  
3.385551e-002, 2.695684e-001, 3.385551e-002, 1.710318e+000  
3.388657e-002, 3.846416e-001, 3.388657e-002, 1.480011e+000  
3.391763e-002, 5.278129e-001, 3.391763e-002, 1.193539e+000  
3.394869e-002, 6.936406e-001, 3.394869e-002, 8.617772e-001  
3.397975e-002, 8.758331e-001, 3.397975e-002, 4.973237e-001  
3.401081e-002, 1.067436e+000, 3.401081e-002, 1.140790e-001  
3.404187e-002, 1.261339e+000, 3.404187e-002, -2.737238e-001  
3.407293e-002, 1.450016e+000, 3.407293e-002, -6.510287e-001  
3.410399e-002, 1.626335e+000, 3.410399e-002, -1.003590e+000  
3.413505e-002, 1.783610e+000, 3.413505e-002, -1.318026e+000  
3.416611e-002, 1.915869e+000, 3.416611e-002, -1.582405e+000  
3.419717e-002, 2.018097e+000, 3.419717e-002, -1.786696e+000  
3.422823e-002, 2.086412e+000, 3.422823e-002, -1.923146e+000  
3.425929e-002, 2.118832e+000, 3.425929e-002, -1.987795e+000  
3.429035e-002, 2.112617e+000, 3.429035e-002, -1.975168e+000  
3.432141e-002, 2.069215e+000, 3.432141e-002, -1.888172e+000  
3.435247e-002, 1.989971e+000, 3.435247e-002, -1.729505e+000  
3.438353e-002, 1.877897e+000, 3.438353e-002, -1.505197e+000  
3.441459e-002, 1.737249e+000, 3.441459e-002, -1.223765e+000  
3.444565e-002, 1.573370e+000, 3.444565e-002, -8.958973e-001  
3.447671e-002, 1.392479e+000, 3.447671e-002, -5.340426e-001  
3.450777e-002, 1.201445e+000, 3.450777e-002, -1.519385e-001  
3.453883e-002, 1.007521e+000, 3.453883e-002, 2.359094e-001  
3.456989e-002, 8.180671e-001, 3.456989e-002, 6.147787e-001  
3.460095e-002, 6.402744e-001, 3.460095e-002, 9.702885e-001  
3.463201e-002, 4.805117e-001, 3.463201e-002, 1.289710e+000  
3.466307e-002, 3.457628e-001, 3.466307e-002, 1.559070e+000  
3.469413e-002, 2.404038e-001, 3.469413e-002, 1.769621e+000  
3.472519e-002, 1.686348e-001, 3.472519e-002, 1.912980e+000  
3.475625e-002, 1.331734e-001, 3.475625e-002, 1.983710e+000  
3.478731e-002, 1.353660e-001, 3.478731e-002, 1.979131e+000  
3.481837e-002, 1.751243e-001, 3.481837e-002, 1.899422e+000  
3.484943e-002, 2.509394e-001, 3.484943e-002, 1.747612e+000  
3.488049e-002, 3.599292e-001, 3.488049e-002, 1.529468e+000  
3.491155e-002, 4.979567e-001, 3.491155e-002, 1.253274e+000  
3.494261e-002, 6.595145e-001, 3.494261e-002, 9.300442e-001  
3.497367e-002, 8.392134e-001, 3.497367e-002, 5.705681e-001  
3.500473e-002, 1.029573e+000, 3.500473e-002, 1.898083e-001  
3.503579e-002, 1.223545e+000, 3.503579e-002, -1.981325e-001  
3.506685e-002, 1.413759e+000, 3.506685e-002, -5.785283e-001  
3.509791e-002, 1.593002e+000, 3.509791e-002, -9.369401e-001  
3.512897e-002, 1.754466e+000, 3.512897e-002, -1.259764e+000  
3.516003e-002, 1.892475e+000, 3.516003e-002, -1.535653e+000  
3.519109e-002, 2.000681e+000, 3.519109e-002, -1.751902e+000  
3.522215e-002, 2.075879e+000, 3.522215e-002, -1.902117e+000  
3.525321e-002, 2.114975e+000, 3.525321e-002, -1.980116e+000  
3.528427e-002, 2.116484e+000, 3.528427e-002, -1.982941e+000  
3.531533e-002, 2.080356e+000, 3.531533e-002, -1.910491e+000  
3.534639e-002, 2.007961e+000, 3.534639e-002, -1.765519e+000  
3.537745e-002, 1.902051e+000, 3.537745e-002, -1.553534e+000  
3.540851e-002, 1.766647e+000, 3.540851e-002, -1.282586e+000  
3.543957e-002, 1.607169e+000, 3.543957e-002, -9.635103e-001  
3.547063e-002, 1.428898e+000, 3.547063e-002, -6.068870e-001  
3.550169e-002, 1.239281e+000, 3.550169e-002, -2.276102e-001  
3.553275e-002, 1.045335e+000, 3.553275e-002, 1.602824e-001  
3.556381e-002, 8.544289e-001, 3.556381e-002, 5.420662e-001  
3.559487e-002, 6.738020e-001, 3.559487e-002, 9.032496e-001  
3.562593e-002, 5.103152e-001, 3.562593e-002, 1.230124e+000  
3.565699e-002, 3.697252e-001, 3.565699e-002, 1.511176e+000  
3.568805e-002, 2.584611e-001, 3.568805e-002, 1.733544e+000  
3.571911e-002, 1.798630e-001, 3.571911e-002, 1.890562e+000  
3.575018e-002, 1.371475e-001, 3.575018e-002, 1.975800e+000  
3.578124e-002, 1.319363e-001, 3.578124e-002, 1.986029e+000  
3.581230e-002, 1.644217e-001, 3.581230e-002, 1.920864e+000  
3.584336e-002, 2.333703e-001, 3.584336e-002, 1.782784e+000  
3.587442e-002, 3.361608e-001, 3.587442e-002, 1.577035e+000  
3.590548e-002, 4.688913e-001, 3.590548e-002, 1.311430e+000  
3.593654e-002, 6.262328e-001, 3.593654e-002, 9.966265e-001  
3.596760e-002, 8.030106e-001, 3.596760e-002, 6.429861e-001  
3.599866e-002, 9.918143e-001, 3.599866e-002, 2.653303e-001  
3.602972e-002, 1.185664e+000, 3.602972e-002, -1.223728e-001  
3.606078e-002, 1.377193e+000, 3.606078e-002, -5.054057e-001  
3.609184e-002, 1.559138e+000, 3.609184e-002, -8.692294e-001  
3.612290e-002, 1.724589e+000, 3.612290e-002, -1.200035e+000  
3.615396e-002, 1.867709e+000, 3.615396e-002, -1.486149e+000  
3.618502e-002, 1.981991e+000, 3.618502e-002, -1.714554e+000  
3.621608e-002, 2.063961e+000, 3.621608e-002, -1.878317e+000  
3.624714e-002, 2.110280e+000, 3.624714e-002, -1.970765e+000  
3.627820e-002, 2.119191e+000, 3.627820e-002, -1.988393e+000  
3.630926e-002, 2.090361e+000, 3.630926e-002, -1.930538e+000  
3.634032e-002, 2.024884e+000, 3.634032e-002, -1.799401e+000  
3.637138e-002, 1.925250e+000, 3.637138e-002, -1.599962e+000  
3.640244e-002, 1.795241e+000, 3.640244e-002, -1.339798e+000  
3.643350e-002, 1.640094e+000, 3.643350e-002, -1.029381e+000  
3.646456e-002, 1.464874e+000, 3.646456e-002, -6.788523e-001  
3.649562e-002, 1.276951e+000, 3.649562e-002, -3.029550e-001  
3.652668e-002, 1.083268e+000, 3.652668e-002, 8.441749e-002  
3.655774e-002, 8.911865e-001, 3.655774e-002, 4.685602e-001  
3.658880e-002, 7.079889e-001, 3.658880e-002, 8.348917e-001  
3.661986e-002, 5.406344e-001, 3.661986e-002, 1.169508e+000  
3.665092e-002, 3.950377e-001, 3.665092e-002, 1.460580e+000  
3.668198e-002, 2.777795e-001, 3.668198e-002, 1.694940e+000  
3.671304e-002, 1.924676e-001, 3.671304e-002, 1.865389e+000  
3.674410e-002, 1.425604e-001, 3.674410e-002, 1.965012e+000  
3.677516e-002, 1.299528e-001, 3.677516e-002, 1.990034e+000  
3.680622e-002, 1.551173e-001, 3.680622e-002, 1.939510e+000  
3.683728e-002, 2.170988e-001, 3.683728e-002, 1.815362e+000  
3.686834e-002, 3.135399e-001, 3.686834e-002, 1.622308e+000  
3.689940e-002, 4.407801e-001, 3.689940e-002, 1.367679e+000  
3.693046e-002, 5.936758e-001, 3.693046e-002, 1.061761e+000  
3.696152e-002, 7.672743e-001, 3.696152e-002, 7.144725e-001  
3.699258e-002, 9.542475e-001, 3.699258e-002, 3.404705e-001  
3.702364e-002, 1.147692e+000, 3.702364e-002, -4.643032e-002  
3.705470e-002, 1.340257e+000, 3.705470e-002, -4.315429e-001  
3.708576e-002, 1.524640e+000, 3.708576e-002, -8.002491e-001  
3.711682e-002, 1.693838e+000, 3.711682e-002, -1.138554e+000  
3.714788e-002, 1.841859e+000, 3.714788e-002, -1.434478e+000  
3.717894e-002, 1.962051e+000, 3.717894e-002, -1.674708e+000  
3.721000e-002, 2.050674e+000, 3.721000e-002, -1.851780e+000  
3.724106e-002, 2.104151e+000, 3.724106e-002, -1.958544e+000  
3.727212e-002, 2.120451e+000, 3.727212e-002, -1.990950e+000  
3.730318e-002, 2.098961e+000, 3.730318e-002, -1.947776e+000  
3.733424e-002, 2.040498e+000, 3.733424e-002, -1.830663e+000  
3.736530e-002, 1.947285e+000, 3.736530e-002, -1.644063e+000  
3.739636e-002, 1.822860e+000, 3.739636e-002, -1.395063e+000  
3.742742e-002, 1.672271e+000, 3.742742e-002, -1.093756e+000  
3.745848e-002, 1.500357e+000, 3.745848e-002, -7.498337e-001  
3.748954e-002, 1.314401e+000, 3.748954e-002, -3.778633e-001  
3.752060e-002, 1.121265e+000, 3.752060e-002, 8.425070e-003  
3.755166e-002, 9.282866e-001, 3.755166e-002, 3.943675e-001  
3.758272e-002, 7.427850e-001, 3.758272e-002, 7.653142e-001  
3.761378e-002, 5.718063e-001, 3.761378e-002, 1.107185e+000  
3.764484e-002, 4.214147e-001, 3.764484e-002, 1.407853e+000  
3.767590e-002, 2.983331e-001, 3.767590e-002, 1.653865e+000  
3.770696e-002, 2.064311e-001, 3.770696e-002, 1.837497e+000  
3.773802e-002, 1.494044e-001, 3.773802e-002, 1.951362e+000  
3.776908e-002, 1.294182e-001, 3.776908e-002, 1.991142e+000  
3.780014e-002, 1.472248e-001, 3.780014e-002, 1.955332e+000  
3.783120e-002, 2.021486e-001, 3.783120e-002, 1.845298e+000  
3.786226e-002, 2.920996e-001, 3.786226e-002, 1.665220e+000  
3.789332e-002, 4.136638e-001, 3.789332e-002, 1.421939e+000  
3.792438e-002, 5.618906e-001, 3.792438e-002, 1.125353e+000  
3.795544e-002, 7.320565e-001, 3.795544e-002, 7.849231e-001  
3.798650e-002, 9.169268e-001, 3.798650e-002, 4.151198e-001  
3.801756e-002, 1.109685e+000, 3.801756e-002, 2.958445e-002  
3.804862e-002, 1.303006e+000, 3.804862e-002, -3.570474e-001  
3.807968e-002, 1.489559e+000, 3.807968e-002, -7.300996e-001  
3.811074e-002, 1.662257e+000, 3.811074e-002, -1.075413e+000  
3.814180e-002, 1.814964e+000, 3.814180e-002, -1.380714e+000  
3.817286e-002, 1.940891e+000, 3.817286e-002, -1.632419e+000  
3.820392e-002, 2.036039e+000, 3.820392e-002, -1.822544e+000  
3.823498e-002, 2.096595e+000, 3.823498e-002, -1.943469e+000  
3.826604e-002, 2.120260e+000, 3.826604e-002, -1.990608e+000  
3.829710e-002, 2.106143e+000, 3.829710e-002, -1.962178e+000  
3.832816e-002, 2.054779e+000, 3.832816e-002, -1.859262e+000  
3.835922e-002, 1.968123e+000, 3.835922e-002, -1.685772e+000  
3.839028e-002, 1.849900e+000, 3.839028e-002, -1.449166e+000  
3.842134e-002, 1.703451e+000, 3.842134e-002, -1.156137e+000  
3.845240e-002, 1.535294e+000, 3.845240e-002, -8.197279e-001  
3.848346e-002, 1.351577e+000, 3.848346e-002, -4.522263e-001  
3.851452e-002, 1.159269e+000, 3.851452e-002, -6.758441e-002  
3.854558e-002, 9.656754e-001, 3.854558e-002, 3.195961e-001  
3.857664e-002, 7.781403e-001, 3.857664e-002, 6.946182e-001  
3.860770e-002, 6.037854e-001, 3.860770e-002, 1.043247e+000  
3.863876e-002, 4.488178e-001, 3.863876e-002, 1.353072e+000  
3.866982e-002, 3.200921e-001, 3.866982e-002, 1.610378e+000  
3.870088e-002, 2.217316e-001, 3.870088e-002, 1.806927e+000  
3.873194e-002, 1.576704e-001, 3.873194e-002, 1.934868e+000  
3.876300e-002, 1.303326e-001, 3.876300e-002, 1.989350e+000  
3.879406e-002, 1.407565e-001, 3.879406e-002, 1.968308e+000  
3.882512e-002, 1.885407e-001, 3.882512e-002, 1.872549e+000  
3.885619e-002, 2.718716e-001, 3.885619e-002, 1.705710e+000  
3.888725e-002, 3.875813e-001, 3.888725e-002, 1.474131e+000  
3.891831e-002, 5.309226e-001, 3.891831e-002, 1.187310e+000  
3.894937e-002, 6.974086e-001, 3.894937e-002, 8.542355e-001  
3.898043e-002, 8.799096e-001, 3.898043e-002, 4.891695e-001  
3.901149e-002, 1.071697e+000, 3.901149e-002, 1.055610e-001  
3.904255e-002, 1.265494e+000, 3.904255e-002, -2.820272e-001  
3.907361e-002, 1.453943e+000, 3.907361e-002, -6.588827e-001  
3.910467e-002, 1.629893e+000, 3.910467e-002, -1.010701e+000  
3.913573e-002, 1.786662e+000, 3.913573e-002, -1.324130e+000  
3.916679e-002, 1.918781e+000, 3.916679e-002, -1.588231e+000  
3.919785e-002, 2.020075e+000, 3.919785e-002, -1.790652e+000  
3.922891e-002, 2.087623e+000, 3.922891e-002, -1.925563e+000  
3.925997e-002, 2.118621e+000, 3.925997e-002, -1.987367e+000  
3.929103e-002, 2.111897e+000, 3.929103e-002, -1.973723e+000  
3.932209e-002, 2.067707e+000, 3.932209e-002, -1.885154e+000  
3.935315e-002, 1.987734e+000, 3.935315e-002, -1.725028e+000  
3.938421e-002, 1.875014e+000, 3.938421e-002, -1.499428e+000  
3.941527e-002, 1.733829e+000, 3.941527e-002, -1.216921e+000  
3.944633e-002, 1.569538e+000, 3.944633e-002, -8.882336e-001  
3.947739e-002, 1.388534e+000, 3.947739e-002, -5.261470e-001  
3.950845e-002, 1.197229e+000, 3.950845e-002, -1.435004e-001  
3.953951e-002, 1.003301e+000, 3.953951e-002, 2.443545e-001  
3.957057e-002, 8.140018e-001, 3.957057e-002, 6.229063e-001  
3.960163e-002, 6.365256e-001, 3.960163e-002, 9.777862e-001  
3.963269e-002, 4.776000e-001, 3.963269e-002, 1.295525e+000  
3.966375e-002, 3.432625e-001, 3.966375e-002, 1.564064e+000  
3.969481e-002, 2.380775e-001, 3.969481e-002, 1.774276e+000  
3.972587e-002, 1.673457e-001, 3.972587e-002, 1.915556e+000  
3.975693e-002, 1.326973e-001, 3.975693e-002, 1.984660e+000  
3.978799e-002, 1.357198e-001, 3.978799e-002, 1.978419e+000  
3.981905e-002, 1.762967e-001, 3.981905e-002, 1.897074e+000  
3.985011e-002, 2.528837e-001, 3.985011e-002, 1.743719e+000  
3.988117e-002, 3.625722e-001, 3.988117e-002, 1.524179e+000  
3.991223e-002, 5.011954e-001, 3.991223e-002, 1.246794e+000  
3.994329e-002, 6.634907e-001, 3.994329e-002, 9.220940e-001  
3.997435e-002, 8.432949e-001, 3.997435e-002, 5.624085e-001  
4.000541e-002, 1.033784e+000, 4.000541e-002, 1.813922e-001  
4.003647e-002, 1.227786e+000, 4.003647e-002, -2.066218e-001  
4.006753e-002, 1.417844e+000, 4.006753e-002, -5.867019e-001  
4.009859e-002, 1.596790e+000, 4.009859e-002, -9.445142e-001  
4.012965e-002, 1.757809e+000, 4.012965e-002, -1.266448e+000  
4.016071e-002, 1.894796e+000, 4.016071e-002, -1.540285e+000  
4.019177e-002, 2.002550e+000, 4.019177e-002, -1.755634e+000  
4.022283e-002, 2.076986e+000, 4.022283e-002, -1.904325e+000  
4.025389e-002, 2.115276e+000, 4.025389e-002, -1.980716e+000  
4.028495e-002, 2.116548e+000, 4.028495e-002, -1.983064e+000  
4.031601e-002, 2.079264e+000, 4.031601e-002, -1.908303e+000  
4.034707e-002, 2.006091e+000, 4.034707e-002, -1.761775e+000  
4.037813e-002, 1.899474e+000, 4.037813e-002, -1.548377e+000  
4.040919e-002, 1.763463e+000, 4.040919e-002, -1.276213e+000  
4.044025e-002, 1.603222e+000, 4.044025e-002, -9.556195e-001  
4.047131e-002, 1.424836e+000, 4.047131e-002, -5.987673e-001  
4.050237e-002, 1.235076e+000, 4.050237e-002, -2.192045e-001  
4.053343e-002, 1.041147e+000, 4.053343e-002, 1.686600e-001  
4.056449e-002, 8.502484e-001, 4.056449e-002, 5.504321e-001  
4.059555e-002, 6.699808e-001, 4.059555e-002, 9.108972e-001  
4.062661e-002, 5.069204e-001, 4.062661e-002, 1.236909e+000  
4.065767e-002, 3.673370e-001, 4.065767e-002, 1.515944e+000  
4.068873e-002, 2.565214e-001, 4.068873e-002, 1.737415e+000  
4.071979e-002, 1.786820e-001, 4.071979e-002, 1.892918e+000  
4.075085e-002, 1.367681e-001, 4.075085e-002, 1.976555e+000  
4.078191e-002, 1.323720e-001, 4.078191e-002, 1.985153e+000  
4.081297e-002, 1.651024e-001, 4.081297e-002, 1.919499e+000  
4.084403e-002, 2.351645e-001, 4.084403e-002, 1.779190e+000  
4.087509e-002, 3.386702e-001, 4.087509e-002, 1.572011e+000  
4.090615e-002, 4.720206e-001, 4.090615e-002, 1.305169e+000  
4.093721e-002, 6.301476e-001, 4.093721e-002, 9.887981e-001  
4.096827e-002, 8.070513e-001, 4.096827e-002, 6.349091e-001  
4.099933e-002, 9.960129e-001, 4.099933e-002, 2.569379e-001  
4.103039e-002, 1.189861e+000, 4.103039e-002, -1.307671e-001  
4.106145e-002, 1.381388e+000, 4.106145e-002, -5.137973e-001  
4.109251e-002, 1.562995e+000, 4.109251e-002, -8.769476e-001  
4.112357e-002, 1.728031e+000, 4.112357e-002, -1.206918e+000  
4.115463e-002, 1.870165e+000, 4.115463e-002, -1.491051e+000  
4.118569e-002, 1.983998e+000, 4.118569e-002, -1.718563e+000  
4.121675e-002, 2.065217e+000, 4.121675e-002, -1.880822e+000  
4.124781e-002, 2.110736e+000, 4.124781e-002, -1.971674e+000  
4.127887e-002, 2.119416e+000, 4.127887e-002, -1.988839e+000  
4.130993e-002, 2.089431e+000, 4.130993e-002, -1.928674e+000  
4.134099e-002, 2.023166e+000, 4.134099e-002, -1.795958e+000  
4.137205e-002, 1.922807e+000, 4.137205e-002, -1.595073e+000  
4.140311e-002, 1.792169e+000, 4.140311e-002, -1.333651e+000  
4.143417e-002, 1.636211e+000, 4.143417e-002, -1.021617e+000  
4.146523e-002, 1.460856e+000, 4.146523e-002, -6.708207e-001  
4.149629e-002, 1.272761e+000, 4.149629e-002, -2.945786e-001  
4.152735e-002, 1.079065e+000, 4.152735e-002, 9.282565e-002  
4.155841e-002, 8.871224e-001, 4.155841e-002, 4.766862e-001  
4.158947e-002, 7.039726e-001, 4.158947e-002, 8.429291e-001  
4.162053e-002, 5.371453e-001, 4.162053e-002, 1.176487e+000  
4.165159e-002, 3.925179e-001, 4.165159e-002, 1.465614e+000  
4.168265e-002, 2.757030e-001, 4.168265e-002, 1.699084e+000  
4.171371e-002, 1.911385e-001, 4.171371e-002, 1.868041e+000  
4.174477e-002, 1.420269e-001, 4.174477e-002, 1.966075e+000  
4.177583e-002, 1.302342e-001, 4.177583e-002, 1.989467e+000  
4.180689e-002, 1.556385e-001, 4.180689e-002, 1.938465e+000  
4.183795e-002, 2.187409e-001, 4.183795e-002, 1.812072e+000  
4.186901e-002, 3.159133e-001, 4.186901e-002, 1.617556e+000  
4.190007e-002, 4.437944e-001, 4.190007e-002, 1.361648e+000  
4.193113e-002, 5.975238e-001, 4.193113e-002, 1.054066e+000  
4.196220e-002, 7.712681e-001, 4.196220e-002, 7.064890e-001  
4.199326e-002, 9.584284e-001, 4.199326e-002, 3.321131e-001  
4.202432e-002, 1.151902e+000, 4.202432e-002, -5.484950e-002  
4.205538e-002, 1.344473e+000, 4.205538e-002, -4.399768e-001  
4.208644e-002, 1.528563e+000, 4.208644e-002, -8.080995e-001  
4.211750e-002, 1.697374e+000, 4.211750e-002, -1.145627e+000  
4.214856e-002, 1.844447e+000, 4.214856e-002, -1.439642e+000  
4.217962e-002, 1.964194e+000, 4.217962e-002, -1.678987e+000  
4.221068e-002, 2.052078e+000, 4.221068e-002, -1.854580e+000  
4.224174e-002, 2.104760e+000, 4.224174e-002, -1.959760e+000  
4.227280e-002, 2.120836e+000, 4.227280e-002, -1.991718e+000  
4.230386e-002, 2.098194e+000, 4.230386e-002, -1.946238e+000  
4.233492e-002, 2.038933e+000, 4.233492e-002, -1.827527e+000  
4.236598e-002, 1.944979e+000, 4.236598e-002, -1.639450e+000  
4.239704e-002, 1.819905e+000, 4.239704e-002, -1.389150e+000  
4.242810e-002, 1.668458e+000, 4.242810e-002, -1.086131e+000  
4.245916e-002, 1.496390e+000, 4.245916e-002, -7.419010e-001  
4.249022e-002, 1.310232e+000, 4.249022e-002, -3.695276e-001  
4.252128e-002, 1.117052e+000, 4.252128e-002, 1.685244e-002  
4.255234e-002, 9.241835e-001, 4.255234e-002, 4.025718e-001  
4.258340e-002, 7.387202e-001, 4.258340e-002, 7.734492e-001  
4.261446e-002, 5.682253e-001, 4.261446e-002, 1.114349e+000  
4.264552e-002, 4.187656e-001, 4.264552e-002, 1.413145e+000  
4.267658e-002, 2.961226e-001, 4.267658e-002, 1.658277e+000  
4.270764e-002, 2.049556e-001, 4.270764e-002, 1.840443e+000  
4.273870e-002, 1.487174e-001, 4.273870e-002, 1.952731e+000  
4.276976e-002, 1.295449e-001, 4.276976e-002, 1.990884e+000  
4.280082e-002, 1.475856e-001, 4.280082e-002, 1.954608e+000  
4.283188e-002, 2.036359e-001, 4.283188e-002, 1.842318e+000  
4.286294e-002, 2.943332e-001, 4.286294e-002, 1.660748e+000  
4.289400e-002, 4.165586e-001, 4.289400e-002, 1.416146e+000  
4.292506e-002, 5.656663e-001, 4.292506e-002, 1.117802e+000  
4.295612e-002, 7.359981e-001, 4.295612e-002, 7.770439e-001  
4.298718e-002, 9.210846e-001, 4.298718e-002, 4.068085e-001  
4.301824e-002, 1.113901e+000, 4.301824e-002, 2.115172e-002  
4.304930e-002, 1.307237e+000, 4.304930e-002, -3.655113e-001  
4.308036e-002, 1.493541e+000, 4.308036e-002, -7.380701e-001  
4.311142e-002, 1.665882e+000, 4.311142e-002, -1.082664e+000  
4.314248e-002, 1.817680e+000, 4.314248e-002, -1.386134e+000  
4.317354e-002, 1.943166e+000, 4.317354e-002, -1.636963e+000  
4.320460e-002, 2.037588e+000, 4.320460e-002, -1.825635e+000  
4.323566e-002, 2.097357e+000, 4.323566e-002, -1.944991e+000  
4.326672e-002, 2.120806e+000, 4.326672e-002, -1.991696e+000  
4.329778e-002, 2.105540e+000, 4.329778e-002, -1.960968e+000  
4.332884e-002, 2.053370e+000, 4.332884e-002, -1.856438e+000  
4.335990e-002, 1.965959e+000, 4.335990e-002, -1.681442e+000  
4.339096e-002, 1.846631e+000, 4.339096e-002, -1.442629e+000  
4.342202e-002, 1.699915e+000, 4.342202e-002, -1.149067e+000  
4.345308e-002, 1.531384e+000, 4.345308e-002, -8.119048e-001  
4.348414e-002, 1.347435e+000, 4.348414e-002, -4.439424e-001  
4.351520e-002, 1.155052e+000, 4.351520e-002, -5.914916e-002  
4.354626e-002, 9.615388e-001, 4.354626e-002, 3.278676e-001  
4.357732e-002, 7.740322e-001, 4.357732e-002, 7.028390e-001  
4.360838e-002, 6.001181e-001, 4.360838e-002, 1.050583e+000  
4.363944e-002, 4.460409e-001, 4.363944e-002, 1.358616e+000  
4.367050e-002, 3.177515e-001, 4.367050e-002, 1.615053e+000  
4.370156e-002, 2.201123e-001, 4.370156e-002, 1.810162e+000  
4.373262e-002, 1.568310e-001, 4.373262e-002, 1.936543e+000  
4.376368e-002, 1.303042e-001, 4.376368e-002, 1.989402e+000  
4.379474e-002, 1.415398e-001, 4.379474e-002, 1.966737e+000  
4.382580e-002, 1.895575e-001, 4.382580e-002, 1.870511e+000  
4.385686e-002, 2.739614e-001, 4.385686e-002, 1.701524e+000  
4.388792e-002, 3.903510e-001, 4.388792e-002, 1.468586e+000  
4.391898e-002, 5.346221e-001, 4.391898e-002, 1.179915e+000  
4.395004e-002, 7.012917e-001, 4.395004e-002, 8.464712e-001  
4.398110e-002, 8.840362e-001, 4.398110e-002, 4.809156e-001  
4.401216e-002, 1.075886e+000, 4.401216e-002, 9.717817e-002  
4.404322e-002, 1.269705e+000, 4.404322e-002, -2.904551e-001  
4.407428e-002, 1.457984e+000, 4.407428e-002, -6.669610e-001  
4.410534e-002, 1.633602e+000, 4.410534e-002, -1.018120e+000  
4.413640e-002, 1.789901e+000, 4.413640e-002, -1.330603e+000  
4.416746e-002, 1.920946e+000, 4.416746e-002, -1.592553e+000  
4.419852e-002, 2.021768e+000, 4.419852e-002, -1.794030e+000  
4.422958e-002, 2.088538e+000, 4.422958e-002, -1.927390e+000  
4.426064e-002, 2.119326e+000, 4.426064e-002, -1.988774e+000  
4.429170e-002, 2.111459e+000, 4.429170e-002, -1.972844e+000  
4.432276e-002, 2.066456e+000, 4.432276e-002, -1.882646e+000  
4.435382e-002, 1.985716e+000, 4.435382e-002, -1.720988e+000  
4.438488e-002, 1.872307e+000, 4.438488e-002, -1.494010e+000  
4.441594e-002, 1.730536e+000, 4.441594e-002, -1.210334e+000  
4.444700e-002, 1.565788e+000, 4.444700e-002, -8.807304e-001  
4.447806e-002, 1.384316e+000, 4.447806e-002, -5.177148e-001  
4.450912e-002, 1.193011e+000, 4.450912e-002, -1.350686e-001  
4.454018e-002, 9.991340e-001, 4.454018e-002, 2.526822e-001  
4.457124e-002, 8.100456e-001, 4.457124e-002, 6.308189e-001  
4.460230e-002, 6.326321e-001, 4.460230e-002, 9.855754e-001  
4.463336e-002, 4.743120e-001, 4.463336e-002, 1.302105e+000  
4.466442e-002, 3.405553e-001, 4.466442e-002, 1.569473e+000  
4.469548e-002, 2.365894e-001, 4.469548e-002, 1.777244e+000  
4.472654e-002, 1.663531e-001, 4.472654e-002, 1.917534e+000  
4.475760e-002, 1.325137e-001, 4.475760e-002, 1.985023e+000  
4.478866e-002, 1.363503e-001, 4.478866e-002, 1.977153e+000  
4.481972e-002, 1.777179e-001, 4.481972e-002, 1.894228e+000  
4.485078e-002, 2.545315e-001, 4.485078e-002, 1.740418e+000  
4.488184e-002, 3.652133e-001, 4.488184e-002, 1.518891e+000  
4.491290e-002, 5.044328e-001, 4.491290e-002, 1.240313e+000  
4.494396e-002, 6.672021e-001, 4.494396e-002, 9.146699e-001  
4.497502e-002, 8.473351e-001, 4.497502e-002, 5.543266e-001  
4.500608e-002, 1.037998e+000, 4.500608e-002, 1.729631e-001  
4.503714e-002, 1.231950e+000, 4.503714e-002, -2.149432e-001  
4.506821e-002, 1.421831e+000, 4.506821e-002, -5.946675e-001  
4.509927e-002, 1.600714e+000, 4.509927e-002, -9.523658e-001  
4.513033e-002, 1.761150e+000, 4.513033e-002, -1.273131e+000  
4.516139e-002, 1.897564e+000, 4.516139e-002, -1.545821e+000  
4.519245e-002, 2.004641e+000, 4.519245e-002, -1.759810e+000  
4.522351e-002, 2.078315e+000, 4.522351e-002, -1.906980e+000  
4.525457e-002, 2.115795e+000, 4.525457e-002, -1.981748e+000  
4.528563e-002, 2.115659e+000, 4.528563e-002, -1.981282e+000  
4.531669e-002, 2.078483e+000, 4.531669e-002, -1.906739e+000  
4.534775e-002, 2.004221e+000, 4.534775e-002, -1.758030e+000  
4.537881e-002, 1.896898e+000, 4.537881e-002, -1.543219e+000  
4.540987e-002, 1.760278e+000, 4.540987e-002, -1.269841e+000  
4.544093e-002, 1.599553e+000, 4.544093e-002, -9.482775e-001  
4.547199e-002, 1.420822e+000, 4.547199e-002, -5.907376e-001  
4.550305e-002, 1.230873e+000, 4.550305e-002, -2.107956e-001  
4.553411e-002, 1.036914e+000, 4.553411e-002, 1.771249e-001  
4.556517e-002, 8.461431e-001, 4.556517e-002, 5.586396e-001  
4.559623e-002, 6.661560e-001, 4.559623e-002, 9.185449e-001  
4.562729e-002, 5.035295e-001, 4.562729e-002, 1.243693e+000  
4.565835e-002, 3.645036e-001, 4.565835e-002, 1.521605e+000  
4.568941e-002, 2.543607e-001, 4.568941e-002, 1.741735e+000  
4.572047e-002, 1.772725e-001, 4.572047e-002, 1.895731e+000  
4.575153e-002, 1.361682e-001, 4.575153e-002, 1.977752e+000  
4.578259e-002, 1.320014e-001, 4.578259e-002, 1.985891e+000  
4.581365e-002, 1.664439e-001, 4.581365e-002, 1.916811e+000  
4.584471e-002, 2.369597e-001, 4.584471e-002, 1.775595e+000  
4.587577e-002, 3.411821e-001, 4.587577e-002, 1.566987e+000  
4.590683e-002, 4.751489e-001, 4.590683e-002, 1.298908e+000  
4.593789e-002, 6.337757e-001, 4.593789e-002, 9.815408e-001  
4.596895e-002, 8.110371e-001, 4.596895e-002, 6.269346e-001  
4.600001e-002, 1.000205e+000, 4.600001e-002, 2.485525e-001  
4.603107e-002, 1.194098e+000, 4.603107e-002, -1.392410e-001  
4.606213e-002, 1.385511e+000, 4.606213e-002, -5.220454e-001  
4.609319e-002, 1.566855e+000, 4.609319e-002, -8.846658e-001  
4.612425e-002, 1.731477e+000, 4.612425e-002, -1.213802e+000  
4.615531e-002, 1.873057e+000, 4.615531e-002, -1.496835e+000  
4.618637e-002, 1.986232e+000, 4.618637e-002, -1.723025e+000  
4.621743e-002, 2.066702e+000, 4.621743e-002, -1.883792e+000  
4.624849e-002, 2.111420e+000, 4.624849e-002, -1.973036e+000  
4.627955e-002, 2.118686e+000, 4.627955e-002, -1.987375e+000  
4.631061e-002, 2.088810e+000, 4.631061e-002, -1.927428e+000  
4.634167e-002, 2.021446e+000, 4.634167e-002, -1.792515e+000  
4.637273e-002, 1.920365e+000, 4.637273e-002, -1.590184e+000  
4.640379e-002, 1.789096e+000, 4.640379e-002, -1.327503e+000  
4.643485e-002, 1.632628e+000, 4.643485e-002, -1.014448e+000  
4.646591e-002, 1.456899e+000, 4.646591e-002, -6.629045e-001  
4.649697e-002, 1.268582e+000, 4.649697e-002, -2.862200e-001  
4.652803e-002, 1.074825e+000, 4.652803e-002, 1.013054e-001  
4.655909e-002, 8.828377e-001, 4.655909e-002, 4.852599e-001  
4.659015e-002, 7.002049e-001, 4.659015e-002, 8.504633e-001  
4.662121e-002, 5.336543e-001, 4.662121e-002, 1.183467e+000  
4.665227e-002, 3.895613e-001, 4.665227e-002, 1.471518e+000  
4.668333e-002, 2.734009e-001, 4.668333e-002, 1.703688e+000  
4.671439e-002, 1.895729e-001, 4.671439e-002, 1.871166e+000  
4.674545e-002, 1.412627e-001, 4.674545e-002, 1.967601e+000  
4.677651e-002, 1.296904e-001, 4.677651e-002, 1.990552e+000  
4.680757e-002, 1.568147e-001, 4.680757e-002, 1.936107e+000  
4.683863e-002, 2.203838e-001, 4.683863e-002, 1.808782e+000  
4.686969e-002, 3.182890e-001, 4.686969e-002, 1.612804e+000  
4.690075e-002, 4.468080e-001, 4.690075e-002, 1.355616e+000  
4.693181e-002, 6.010628e-001, 4.693181e-002, 1.046987e+000  
4.696287e-002, 7.751941e-001, 4.696287e-002, 6.986341e-001  
4.699393e-002, 9.625926e-001, 4.699393e-002, 3.237844e-001  
4.702499e-002, 1.156142e+000, 4.702499e-002, -6.333185e-002  
4.705605e-002, 1.348498e+000, 4.705605e-002, -4.480195e-001  
4.708711e-002, 1.532601e+000, 4.708711e-002, -8.161726e-001  
4.711817e-002, 1.700911e+000, 4.711817e-002, -1.152700e+000  
4.714923e-002, 1.847457e+000, 4.714923e-002, -1.445665e+000  
4.718029e-002, 1.966568e+000, 4.718029e-002, -1.683729e+000  
4.721135e-002, 2.053718e+000, 4.721135e-002, -1.857859e+000  
4.724241e-002, 2.105608e+000, 4.724241e-002, -1.961450e+000  
4.727347e-002, 2.120266e+000, 4.727347e-002, -1.990574e+000  
4.730453e-002, 2.097733e+000, 4.730453e-002, -1.945312e+000  
4.733559e-002, 2.037367e+000, 4.733559e-002, -1.824392e+000  
4.736665e-002, 1.942676e+000, 4.736665e-002, -1.634837e+000  
4.739771e-002, 1.816949e+000, 4.739771e-002, -1.383236e+000  
4.742877e-002, 1.664967e+000, 4.742877e-002, -1.079145e+000  
4.745983e-002, 1.492495e+000, 4.745983e-002, -7.341105e-001  
4.749089e-002, 1.306085e+000, 4.749089e-002, -3.612321e-001  
4.752195e-002, 1.112811e+000, 4.752195e-002, 2.533408e-002  
4.755301e-002, 9.198875e-001, 4.755301e-002, 4.111686e-001  
4.758407e-002, 7.348750e-001, 4.758407e-002, 7.811382e-001  
4.761513e-002, 5.646423e-001, 4.761513e-002, 1.121512e+000  
4.764619e-002, 4.156917e-001, 4.764619e-002, 1.419285e+000  
4.767725e-002, 2.936824e-001, 4.767725e-002, 1.663157e+000  
4.770831e-002, 2.032363e-001, 4.770831e-002, 1.843875e+000  
4.773937e-002, 1.477901e-001, 4.773937e-002, 1.954584e+000  
4.777043e-002, 1.288287e-001, 4.777043e-002, 1.992314e+000  
4.780149e-002, 1.485947e-001, 4.780149e-002, 1.952585e+000  
4.783255e-002, 2.051240e-001, 4.783255e-002, 1.839337e+000  
4.786361e-002, 2.965690e-001, 4.786361e-002, 1.656275e+000  
4.789467e-002, 4.194528e-001, 4.789467e-002, 1.410354e+000  
4.792573e-002, 5.691107e-001, 4.792573e-002, 1.110912e+000  
4.795679e-002, 7.398581e-001, 4.795679e-002, 7.693208e-001  
4.798785e-002, 9.252138e-001, 4.798785e-002, 3.985495e-001  
4.801891e-002, 1.118139e+000, 4.801891e-002, 1.267404e-002  
4.804997e-002, 1.311313e+000, 4.804997e-002, -3.736571e-001  
4.808103e-002, 1.497625e+000, 4.808103e-002, -7.462364e-001  
4.811209e-002, 1.669508e+000, 4.811209e-002, -1.089915e+000  
4.814315e-002, 1.820807e+000, 4.814315e-002, -1.392387e+000  
4.817422e-002, 1.945675e+000, 4.817422e-002, -1.641978e+000  
4.820528e-002, 2.039382e+000, 4.820528e-002, -1.829219e+000  
4.823634e-002, 2.098367e+000, 4.823634e-002, -1.947006e+000  
4.826740e-002, 2.120399e+000, 4.826740e-002, -1.990874e+000  
4.829846e-002, 2.104639e+000, 4.829846e-002, -1.959163e+000  
4.832952e-002, 2.052255e+000, 4.832952e-002, -1.854205e+000  
4.836058e-002, 1.963797e+000, 4.836058e-002, -1.677112e+000  
4.839164e-002, 1.843799e+000, 4.839164e-002, -1.436959e+000  
4.842270e-002, 1.696520e+000, 4.842270e-002, -1.142275e+000  
4.845376e-002, 1.527559e+000, 4.845376e-002, -8.042521e-001  
4.848482e-002, 1.343325e+000, 4.848482e-002, -4.357229e-001  
4.851588e-002, 1.150818e+000, 4.851588e-002, -5.067872e-002  
4.854694e-002, 9.573403e-001, 4.854694e-002, 3.362635e-001  
4.857800e-002, 7.700247e-001, 4.857800e-002, 7.108527e-001  
4.860906e-002, 5.964492e-001, 4.860906e-002, 1.057920e+000  
4.864012e-002, 4.428598e-001, 4.864012e-002, 1.364981e+000  
4.867118e-002, 3.151746e-001, 4.867118e-002, 1.620201e+000  
4.870224e-002, 2.182445e-001, 4.870224e-002, 1.813896e+000  
4.873330e-002, 1.557397e-001, 4.873330e-002, 1.938719e+000  
4.876436e-002, 1.300355e-001, 4.876436e-002, 1.989937e+000  
4.879542e-002, 1.414963e-001, 4.879542e-002, 1.966821e+000  
4.882648e-002, 1.912028e-001, 4.882648e-002, 1.867216e+000  
4.885754e-002, 2.760526e-001, 4.885754e-002, 1.697338e+000  
4.888860e-002, 3.931236e-001, 4.888860e-002, 1.463041e+000  
4.891966e-002, 5.379653e-001, 4.891966e-002, 1.173224e+000  
4.895072e-002, 7.050812e-001, 4.895072e-002, 8.388918e-001  
4.898178e-002, 8.881231e-001, 4.898178e-002, 4.727389e-001  
4.901284e-002, 1.080145e+000, 4.901284e-002, 8.866614e-002  
4.904390e-002, 1.273854e+000, 4.904390e-002, -2.987462e-001  
4.907496e-002, 1.462104e+000, 4.907496e-002, -6.752088e-001  
4.910602e-002, 1.637310e+000, 4.910602e-002, -1.025538e+000  
4.913708e-002, 1.793139e+000, 4.913708e-002, -1.337076e+000  
4.916814e-002, 1.923587e+000, 4.916814e-002, -1.597833e+000  
4.919920e-002, 2.023711e+000, 4.919920e-002, -1.797913e+000  
4.923026e-002, 2.089708e+000, 4.923026e-002, -1.929726e+000  
4.926132e-002, 2.119080e+000, 4.926132e-002, -1.988276e+000  
4.929238e-002, 2.110710e+000, 4.929238e-002, -1.971343e+000  
4.932344e-002, 2.065498e+000, 4.932344e-002, -1.880726e+000  
4.935450e-002, 1.983699e+000, 4.935450e-002, -1.716947e+000  
4.938556e-002, 1.869601e+000, 4.938556e-002, -1.488592e+000  
4.941662e-002, 1.727244e+000, 4.941662e-002, -1.203747e+000  
4.944768e-002, 1.562038e+000, 4.944768e-002, -8.732272e-001  
4.947874e-002, 1.380251e+000, 4.947874e-002, -5.095839e-001  
4.950980e-002, 1.188830e+000, 4.950980e-002, -1.267011e-001  
4.954086e-002, 9.948557e-001, 4.954086e-002, 2.612446e-001  
4.957192e-002, 8.058735e-001, 4.957192e-002, 6.391614e-001  
4.960298e-002, 6.290260e-001, 4.960298e-002, 9.927816e-001  
4.963404e-002, 4.710177e-001, 4.963404e-002, 1.308684e+000  
4.966510e-002, 3.378504e-001, 4.966510e-002, 1.574882e+000  
4.969616e-002, 2.345714e-001, 4.969616e-002, 1.781274e+000  
4.972722e-002, 1.651039e-001, 4.972722e-002, 1.920030e+000  
4.975828e-002, 1.314564e-001, 4.975828e-002, 1.987135e+000  
4.978934e-002, 1.364287e-001, 4.978934e-002, 1.976993e+000  
4.982040e-002, 1.786402e-001, 4.982040e-002, 1.892377e+000  
4.985146e-002, 2.567735e-001, 4.985146e-002, 1.735932e+000  
4.988252e-002, 3.678571e-001, 4.988252e-002, 1.513602e+000  
4.991358e-002, 5.076738e-001, 4.991358e-002, 1.233832e+000  
4.994464e-002, 6.709123e-001, 4.994464e-002, 9.072459e-001  
4.997570e-002, 8.513756e-001, 4.997570e-002, 5.462447e-001  
5.000676e-002, 1.042212e+000, 5.000676e-002, 1.645340e-001  
5.003782e-002, 1.236177e+000, 5.003782e-002, -2.233957e-001  
5.006888e-002, 1.425907e+000, 5.006888e-002, -6.028184e-001  
5.009994e-002, 1.604201e+000, 5.009994e-002, -9.593326e-001  
5.013100e-002, 1.764678e+000, 5.013100e-002, -1.280185e+000  
5.016206e-002, 1.900333e+000, 5.016206e-002, -1.551357e+000  
5.019312e-002, 2.006731e+000, 5.019312e-002, -1.763986e+000  
5.022418e-002, 2.079644e+000, 5.022418e-002, -1.909635e+000  
5.025524e-002, 2.116313e+000, 5.025524e-002, -1.982781e+000  
5.028630e-002, 2.115346e+000, 5.028630e-002, -1.980652e+000  
5.031736e-002, 2.076784e+000, 5.031736e-002, -1.903335e+000  
5.034842e-002, 2.002091e+000, 5.034842e-002, -1.753770e+000  
5.037948e-002, 1.894108e+000, 5.037948e-002, -1.537638e+000  
5.041054e-002, 1.756933e+000, 5.041054e-002, -1.263148e+000  
5.044160e-002, 1.596054e+000, 5.044160e-002, -9.412752e-001  
5.047266e-002, 1.416810e+000, 5.047266e-002, -5.827079e-001  
5.050372e-002, 1.226670e+000, 5.050372e-002, -2.023868e-001  
5.053478e-002, 1.032681e+000, 5.053478e-002, 1.855897e-001  
5.056584e-002, 8.422135e-001, 5.056584e-002, 5.664940e-001  
5.059690e-002, 6.624900e-001, 5.059690e-002, 9.258680e-001  
5.062796e-002, 5.003373e-001, 5.062796e-002, 1.250072e+000  
5.065902e-002, 3.614466e-001, 5.065902e-002, 1.527724e+000  
5.069008e-002, 2.521999e-001, 5.069008e-002, 1.746055e+000  
5.072114e-002, 1.758658e-001, 5.072114e-002, 1.898544e+000  
5.075220e-002, 1.355663e-001, 5.075220e-002, 1.978950e+000  
5.078326e-002, 1.328314e-001, 5.078326e-002, 1.984226e+000  
5.081432e-002, 1.677586e-001, 5.081432e-002, 1.914178e+000  
5.084538e-002, 2.390221e-001, 5.084538e-002, 1.771469e+000  
5.087644e-002, 3.439121e-001, 5.087644e-002, 1.561522e+000  
5.090750e-002, 4.784471e-001, 5.090750e-002, 1.292310e+000  
5.093856e-002, 6.372271e-001, 5.093856e-002, 9.746312e-001  
5.096962e-002, 8.150214e-001, 5.096962e-002, 6.189601e-001  
5.100068e-002, 1.004395e+000, 5.100068e-002, 2.401672e-001  
5.103174e-002, 1.198336e+000, 5.103174e-002, -1.477150e-001  
5.106280e-002, 1.389473e+000, 5.106280e-002, -5.299622e-001  
5.109386e-002, 1.570559e+000, 5.109386e-002, -8.920654e-001  
5.112492e-002, 1.734716e+000, 5.112492e-002, -1.220281e+000  
5.115598e-002, 1.876171e+000, 5.115598e-002, -1.503064e+000  
5.118704e-002, 1.988463e+000, 5.118704e-002, -1.727488e+000  
5.121810e-002, 2.068189e+000, 5.121810e-002, -1.886761e+000  
5.124916e-002, 2.112103e+000, 5.124916e-002, -1.974398e+000  
5.128023e-002, 2.118540e+000, 5.128023e-002, -1.987078e+000  
5.131129e-002, 2.087260e+000, 5.131129e-002, -1.924324e+000  
5.134235e-002, 2.019452e+000, 5.134235e-002, -1.788524e+000  
5.137341e-002, 1.917693e+000, 5.137341e-002, -1.584838e+000  
5.140447e-002, 1.785847e+000, 5.140447e-002, -1.321003e+000  
5.143553e-002, 1.629224e+000, 5.143553e-002, -1.007633e+000  
5.146659e-002, 1.452944e+000, 5.146659e-002, -6.549883e-001  
5.149765e-002, 1.264405e+000, 5.149765e-002, -2.778614e-001  
5.152871e-002, 1.070584e+000, 5.152871e-002, 1.097852e-001  
5.155977e-002, 8.788473e-001, 5.155977e-002, 4.932363e-001  
5.159083e-002, 6.964638e-001, 5.159083e-002, 8.579369e-001  
5.162189e-002, 5.303623e-001, 5.162189e-002, 1.190045e+000  
5.165295e-002, 3.863950e-001, 5.165295e-002, 1.477856e+000  
5.168401e-002, 2.710985e-001, 5.168401e-002, 1.708291e+000  
5.171507e-002, 1.880104e-001, 5.171507e-002, 1.874291e+000  
5.174613e-002, 1.404964e-001, 5.174613e-002, 1.969128e+000  
5.177719e-002, 1.303606e-001, 5.177719e-002, 1.989206e+000  
5.180825e-002, 1.579812e-001, 5.180825e-002, 1.933770e+000  
5.183931e-002, 2.223098e-001, 5.183931e-002, 1.804929e+000  
5.187037e-002, 3.208994e-001, 5.187037e-002, 1.607578e+000  
5.190143e-002, 4.500079e-001, 5.190143e-002, 1.349215e+000  
5.193249e-002, 6.044179e-001, 5.193249e-002, 1.040270e+000  
5.196355e-002, 7.791185e-001, 5.196355e-002, 6.907793e-001  
5.199461e-002, 9.667539e-001, 5.199461e-002, 3.154558e-001  
5.202567e-002, 1.160384e+000, 5.202567e-002, -7.181420e-002  
5.205673e-002, 1.352652e+000, 5.205673e-002, -4.563296e-001  
5.208779e-002, 1.536266e+000, 5.208779e-002, -8.234950e-001  
5.211885e-002, 1.704252e+000, 5.211885e-002, -1.159375e+000  
5.214991e-002, 1.850679e+000, 5.214991e-002, -1.452109e+000  
5.218097e-002, 1.968938e+000, 5.218097e-002, -1.688471e+000  
5.221203e-002, 2.055359e+000, 5.221203e-002, -1.861138e+000  
5.224309e-002, 2.106455e+000, 5.224309e-002, -1.963140e+000  
5.227415e-002, 2.120287e+000, 5.227415e-002, -1.990610e+000  
5.230521e-002, 2.096335e+000, 5.230521e-002, -1.942512e+000  
5.233627e-002, 2.035510e+000, 5.233627e-002, -1.820676e+000  
5.236733e-002, 1.940125e+000, 5.236733e-002, -1.629734e+000  
5.239839e-002, 1.813801e+000, 5.239839e-002, -1.376936e+000  
5.242945e-002, 1.661661e+000, 5.242945e-002, -1.072528e+000  
5.246051e-002, 1.488603e+000, 5.246051e-002, -7.263201e-001  
5.249157e-002, 1.301940e+000, 5.249157e-002, -3.529367e-001  
5.252263e-002, 1.108570e+000, 5.252263e-002, 3.381573e-002  
5.255369e-002, 9.158418e-001, 5.255369e-002, 4.192556e-001  
5.258475e-002, 7.310637e-001, 5.258475e-002, 7.887522e-001  
5.261581e-002, 5.612550e-001, 5.261581e-002, 1.128281e+000  
5.264687e-002, 4.124207e-001, 5.264687e-002, 1.425832e+000  
5.267793e-002, 2.912421e-001, 5.267793e-002, 1.668036e+000  
5.270899e-002, 2.015203e-001, 5.270899e-002, 1.847307e+000  
5.274005e-002, 1.468605e-001, 5.274005e-002, 1.956437e+000  
5.277111e-002, 1.293382e-001, 5.277111e-002, 1.991289e+000  
5.280217e-002, 1.496114e-001, 5.280217e-002, 1.950547e+000  
5.283323e-002, 2.069110e-001, 5.283323e-002, 1.835761e+000  
5.286429e-002, 2.990563e-001, 5.286429e-002, 1.651296e+000  
5.289535e-002, 4.225500e-001, 5.289535e-002, 1.404158e+000  
5.292641e-002, 5.723646e-001, 5.292641e-002, 1.104397e+000  
5.295747e-002, 7.437166e-001, 5.295747e-002, 7.615977e-001  
5.298853e-002, 9.293403e-001, 5.298853e-002, 3.902904e-001  
5.301959e-002, 1.122379e+000, 5.301959e-002, 4.196370e-003  
5.305065e-002, 1.315497e+000, 5.305065e-002, -3.820276e-001  
5.308171e-002, 1.501372e+000, 5.308171e-002, -7.537211e-001  
5.311277e-002, 1.672942e+000, 5.311277e-002, -1.096776e+000  
5.314383e-002, 1.824129e+000, 5.314383e-002, -1.399035e+000  
5.317489e-002, 1.948183e+000, 5.317489e-002, -1.646993e+000  
5.320595e-002, 2.041174e+000, 5.320595e-002, -1.832803e+000  
5.323701e-002, 2.099377e+000, 5.323701e-002, -1.949021e+000  
5.326807e-002, 2.120584e+000, 5.326807e-002, -1.991243e+000  
5.329913e-002, 2.103997e+000, 5.329913e-002, -1.957872e+000  
5.333019e-002, 2.050244e+000, 5.333019e-002, -1.850179e+000  
5.336125e-002, 1.961372e+000, 5.336125e-002, -1.672258e+000  
5.339231e-002, 1.841196e+000, 5.339231e-002, -1.431748e+000  
5.342337e-002, 1.693128e+000, 5.342337e-002, -1.135484e+000  
5.345443e-002, 1.523732e+000, 5.345443e-002, -7.965994e-001  
5.348549e-002, 1.339217e+000, 5.348549e-002, -4.275034e-001  
5.351655e-002, 1.146582e+000, 5.351655e-002, -4.220829e-002  
5.354761e-002, 9.531430e-001, 5.354761e-002, 3.446593e-001  
5.357867e-002, 7.662402e-001, 5.357867e-002, 7.184144e-001  
5.360973e-002, 5.929705e-001, 5.360973e-002, 1.064871e+000  
5.364079e-002, 4.394858e-001, 5.364079e-002, 1.371728e+000  
5.367185e-002, 3.126015e-001, 5.367185e-002, 1.625349e+000  
5.370291e-002, 2.163745e-001, 5.370291e-002, 1.817630e+000  
5.373397e-002, 1.546506e-001, 5.373397e-002, 1.940896e+000  
5.376503e-002, 1.297649e-001, 5.376503e-002, 1.990472e+000  
5.379609e-002, 1.426624e-001, 5.379609e-002, 1.964484e+000  
5.382715e-002, 1.928475e-001, 5.382715e-002, 1.863923e+000  
5.385821e-002, 2.784153e-001, 5.385821e-002, 1.692612e+000  
5.388927e-002, 3.961127e-001, 5.388927e-002, 1.457059e+000  
5.392033e-002, 5.411132e-001, 5.392033e-002, 1.166921e+000  
5.395139e-002, 7.088672e-001, 5.395139e-002, 8.313124e-001  
5.398245e-002, 8.922118e-001, 5.398245e-002, 4.645621e-001  
5.401351e-002, 1.084374e+000, 5.401351e-002, 8.020621e-002  
5.404457e-002, 1.278064e+000, 5.404457e-002, -3.071642e-001  
5.407563e-002, 1.465926e+000, 5.407563e-002, -6.828449e-001  
5.410669e-002, 1.640834e+000, 5.410669e-002, -1.032576e+000  
5.413775e-002, 1.796144e+000, 5.413775e-002, -1.343085e+000  
5.416881e-002, 1.926458e+000, 5.416881e-002, -1.603575e+000  
5.419987e-002, 2.025652e+000, 5.419987e-002, -1.801796e+000  
5.423093e-002, 2.090880e+000, 5.423093e-002, -1.932063e+000  
5.426199e-002, 2.119432e+000, 5.426199e-002, -1.988977e+000  
5.429305e-002, 2.110232e+000, 5.429305e-002, -1.970381e+000  
5.432411e-002, 2.063631e+000, 5.432411e-002, -1.876989e+000  
5.435517e-002, 1.981401e+000, 5.435517e-002, -1.712350e+000  
5.438624e-002, 1.866665e+000, 5.438624e-002, -1.482719e+000  
5.441730e-002, 1.723782e+000, 5.441730e-002, -1.196818e+000  
5.444836e-002, 1.558176e+000, 5.444836e-002, -8.655028e-001  
5.447942e-002, 1.376287e+000, 5.447942e-002, -5.016492e-001  
5.451048e-002, 1.184568e+000, 5.451048e-002, -1.181763e-001  
5.454154e-002, 9.906994e-001, 5.454154e-002, 2.695559e-001  
5.457260e-002, 8.019404e-001, 5.457260e-002, 6.470256e-001  
5.460366e-002, 6.254632e-001, 5.460366e-002, 9.999052e-001  
5.463472e-002, 4.679575e-001, 5.463472e-002, 1.314802e+000  
5.466578e-002, 3.354073e-001, 5.466578e-002, 1.579765e+000  
5.469684e-002, 2.322929e-001, 5.469684e-002, 1.785834e+000  
5.472790e-002, 1.638542e-001, 5.472790e-002, 1.922527e+000  
5.475896e-002, 1.316427e-001, 5.475896e-002, 1.986757e+000  
5.479002e-002, 1.371421e-001, 5.479002e-002, 1.975561e+000  
5.482108e-002, 1.801417e-001, 5.482108e-002, 1.889372e+000  
5.485214e-002, 2.590048e-001, 5.485214e-002, 1.731465e+000  
5.488320e-002, 3.707364e-001, 5.488320e-002, 1.507841e+000  
5.491426e-002, 5.110917e-001, 5.491426e-002, 1.226993e+000  
5.494532e-002, 6.747424e-001, 5.494532e-002, 8.995845e-001  
5.497638e-002, 8.554737e-001, 5.497638e-002, 5.380474e-001  
5.500744e-002, 1.046426e+000, 5.500744e-002, 1.561070e-001  
5.503850e-002, 1.240348e+000, 5.503850e-002, -2.317375e-001  
5.506956e-002, 1.430061e+000, 5.506956e-002, -6.111324e-001  
5.510062e-002, 1.607967e+000, 5.510062e-002, -9.668688e-001  
5.513168e-002, 1.767609e+000, 5.513168e-002, -1.286039e+000  
5.516274e-002, 1.902841e+000, 5.516274e-002, -1.556366e+000  
5.519380e-002, 2.008537e+000, 5.519380e-002, -1.767594e+000  
5.522486e-002, 2.080683e+000, 5.522486e-002, -1.911708e+000  
5.525592e-002, 2.116546e+000, 5.525592e-002, -1.983241e+000  
5.528698e-002, 2.114764e+000, 5.528698e-002, -1.979484e+000  
5.531804e-002, 2.075969e+000, 5.531804e-002, -1.901702e+000  
5.534910e-002, 2.000185e+000, 5.534910e-002, -1.749951e+000  
5.538016e-002, 1.891499e+000, 5.538016e-002, -1.532415e+000  
5.541122e-002, 1.753721e+000, 5.541122e-002, -1.256721e+000  
5.544228e-002, 1.592086e+000, 5.544228e-002, -9.333397e-001  
5.547334e-002, 1.412728e+000, 5.547334e-002, -5.745479e-001  
5.550440e-002, 1.222459e+000, 5.550440e-002, -1.939676e-001  
5.553546e-002, 1.028500e+000, 5.553546e-002, 1.939537e-001  
5.556652e-002, 8.380427e-001, 5.556652e-002, 5.748388e-001  
5.559758e-002, 6.586870e-001, 5.559758e-002, 9.334793e-001  
5.562864e-002, 4.969703e-001, 5.562864e-002, 1.256806e+000  
5.565970e-002, 3.591030e-001, 5.565970e-002, 1.532400e+000  
5.569076e-002, 2.503230e-001, 5.569076e-002, 1.749803e+000  
5.572182e-002, 1.747507e-001, 5.572182e-002, 1.900767e+000  
5.575288e-002, 1.352576e-001, 5.575288e-002, 1.979565e+000  
5.578394e-002, 1.327435e-001, 5.578394e-002, 1.984399e+000  
5.581500e-002, 1.688101e-001, 5.581500e-002, 1.912071e+000  
5.584606e-002, 2.408539e-001, 5.584606e-002, 1.767800e+000  
5.587712e-002, 3.464565e-001, 5.587712e-002, 1.556431e+000  
5.590818e-002, 4.816036e-001, 5.590818e-002, 1.285993e+000  
5.593924e-002, 6.411659e-001, 5.593924e-002, 9.667561e-001  
5.597030e-002, 8.190829e-001, 5.597030e-002, 6.108403e-001  
5.600136e-002, 1.008602e+000, 5.600136e-002, 2.317586e-001  
5.603242e-002, 1.202526e+000, 5.603242e-002, -1.560982e-001  
5.606348e-002, 1.393657e+000, 5.606348e-002, -5.383348e-001  
5.609454e-002, 1.574398e+000, 5.609454e-002, -8.997487e-001  
5.612560e-002, 1.738136e+000, 5.612560e-002, -1.227115e+000  
5.615666e-002, 1.878581e+000, 5.615666e-002, -1.507875e+000  
5.618772e-002, 1.990410e+000, 5.618772e-002, -1.731375e+000  
5.621878e-002, 2.069377e+000, 5.621878e-002, -1.889133e+000  
5.624984e-002, 2.112490e+000, 5.624984e-002, -1.975168e+000  
5.628090e-002, 2.118111e+000, 5.628090e-002, -1.986217e+000  
5.631196e-002, 2.086604e+000, 5.631196e-002, -1.923008e+000  
5.634302e-002, 2.017695e+000, 5.634302e-002, -1.785005e+000  
5.637408e-002, 1.915218e+000, 5.637408e-002, -1.579882e+000  
5.640514e-002, 1.782746e+000, 5.640514e-002, -1.314798e+000  
5.643620e-002, 1.625317e+000, 5.643620e-002, -9.998215e-001  
5.646726e-002, 1.448904e+000, 5.646726e-002, -6.469114e-001  
5.649832e-002, 1.260206e+000, 5.649832e-002, -2.694663e-001  
5.652938e-002, 1.066385e+000, 5.652938e-002, 1.181849e-001  
5.656044e-002, 8.746500e-001, 5.656044e-002, 5.016337e-001  
5.659150e-002, 6.925903e-001, 5.659150e-002, 8.656893e-001  
5.662256e-002, 5.268968e-001, 5.662256e-002, 1.196977e+000  
5.665362e-002, 3.839171e-001, 5.665362e-002, 1.482801e+000  
5.668468e-002, 2.690836e-001, 5.668468e-002, 1.712315e+000  
5.671574e-002, 1.867462e-001, 5.671574e-002, 1.876812e+000  
5.674680e-002, 1.400333e-001, 5.674680e-002, 1.970051e+000  
5.677786e-002, 1.301117e-001, 5.677786e-002, 1.989701e+000  
5.680892e-002, 1.588708e-001, 5.680892e-002, 1.931987e+000  
5.683998e-002, 2.239900e-001, 5.683998e-002, 1.801562e+000  
5.687104e-002, 3.233086e-001, 5.687104e-002, 1.602758e+000  
5.690210e-002, 4.530507e-001, 5.690210e-002, 1.343125e+000  
5.693316e-002, 6.082920e-001, 5.693316e-002, 1.032524e+000  
5.696422e-002, 7.831357e-001, 5.696422e-002, 6.827480e-001  
5.699528e-002, 9.709457e-001, 5.699528e-002, 3.070770e-001  
5.702634e-002, 1.164590e+000, 5.702634e-002, -8.022756e-002  
5.705740e-002, 1.356720e+000, 5.705740e-002, -4.644633e-001  
5.708846e-002, 1.540290e+000, 5.708846e-002, -8.315467e-001  
5.711952e-002, 1.707765e+000, 5.711952e-002, -1.166401e+000  
5.715058e-002, 1.853220e+000, 5.715058e-002, -1.457185e+000  
5.718164e-002, 1.971023e+000, 5.718164e-002, -1.692631e+000  
5.721270e-002, 2.056696e+000, 5.721270e-002, -1.863807e+000  
5.724376e-002, 2.106996e+000, 5.724376e-002, -1.964218e+000  
5.727482e-002, 2.120013e+000, 5.727482e-002, -1.990058e+000  
5.730588e-002, 2.095839e+000, 5.730588e-002, -1.941516e+000  
5.733694e-002, 2.033907e+000, 5.733694e-002, -1.817463e+000  
5.736800e-002, 1.937786e+000, 5.736800e-002, -1.625051e+000  
5.739906e-002, 1.810816e+000, 5.739906e-002, -1.370964e+000  
5.743012e-002, 1.657822e+000, 5.743012e-002, -1.064851e+000  
5.746118e-002, 1.484610e+000, 5.746118e-002, -7.183371e-001  
5.749225e-002, 1.297758e+000, 5.749225e-002, -3.445769e-001  
5.752331e-002, 1.104358e+000, 5.752331e-002, 4.223993e-002  
5.755437e-002, 9.116243e-001, 5.755437e-002, 4.276933e-001  
5.758543e-002, 7.271256e-001, 5.758543e-002, 7.966338e-001  
5.761649e-002, 5.576962e-001, 5.761649e-002, 1.135400e+000  
5.764755e-002, 4.098120e-001, 5.764755e-002, 1.431038e+000  
5.767861e-002, 2.890918e-001, 5.767861e-002, 1.672331e+000  
5.770967e-002, 2.001087e-001, 5.770967e-002, 1.850122e+000  
5.774073e-002, 1.462437e-001, 5.774073e-002, 1.957668e+000  
5.777179e-002, 1.289285e-001, 5.777179e-002, 1.992106e+000  
5.780285e-002, 1.503376e-001, 5.780285e-002, 1.949091e+000  
5.783391e-002, 2.084371e-001, 5.783391e-002, 1.832703e+000  
5.786497e-002, 3.013266e-001, 5.786497e-002, 1.646753e+000  
5.789603e-002, 4.254745e-001, 5.789603e-002, 1.398304e+000  
5.792709e-002, 5.761682e-001, 5.792709e-002, 1.096792e+000  
5.795815e-002, 7.476840e-001, 5.795815e-002, 7.536658e-001  
5.798921e-002, 9.335114e-001, 5.798921e-002, 3.819526e-001  
5.802027e-002, 1.126594e+000, 5.802027e-002, -4.235834e-003  
5.805133e-002, 1.319604e+000, 5.805133e-002, -3.902393e-001  
5.808239e-002, 1.505443e+000, 5.808239e-002, -7.618685e-001  
5.811345e-002, 1.676545e+000, 5.811345e-002, -1.103984e+000  
5.814451e-002, 1.826801e+000, 5.814451e-002, -1.404369e+000  
5.817557e-002, 1.950400e+000, 5.817557e-002, -1.651421e+000  
5.820663e-002, 2.042658e+000, 5.820663e-002, -1.835764e+000  
5.823769e-002, 2.100071e+000, 5.823769e-002, -1.950406e+000  
5.826875e-002, 2.120466e+000, 5.826875e-002, -1.991001e+000  
5.829981e-002, 2.103068e+000, 5.829981e-002, -1.956011e+000  
5.833087e-002, 2.049096e+000, 5.833087e-002, -1.847878e+000  
5.836193e-002, 1.959173e+000, 5.836193e-002, -1.667857e+000  
5.839299e-002, 1.837891e+000, 5.839299e-002, -1.425137e+000  
5.842405e-002, 1.689552e+000, 5.842405e-002, -1.128335e+000  
5.845511e-002, 1.519795e+000, 5.845511e-002, -7.887212e-001  
5.848617e-002, 1.335060e+000, 5.848617e-002, -4.191903e-001  
5.851723e-002, 1.142364e+000, 5.851723e-002, -3.377091e-002  
5.854829e-002, 9.490186e-001, 5.854829e-002, 3.529058e-001  
5.857935e-002, 7.621469e-001, 5.857935e-002, 7.266053e-001  
5.861041e-002, 5.893245e-001, 5.861041e-002, 1.072165e+000  
5.864147e-002, 4.367531e-001, 5.864147e-002, 1.377188e+000  
5.867253e-002, 3.103173e-001, 5.867253e-002, 1.629908e+000  
5.870359e-002, 2.148204e-001, 5.870359e-002, 1.820737e+000  
5.873465e-002, 1.538785e-001, 5.873465e-002, 1.942434e+000  
5.876571e-002, 1.298074e-001, 5.876571e-002, 1.990385e+000  
5.879677e-002, 1.429174e-001, 5.879677e-002, 1.963970e+000  
5.882783e-002, 1.942179e-001, 5.882783e-002, 1.861178e+000  
5.885889e-002, 2.805413e-001, 5.885889e-002, 1.688353e+000  
5.888995e-002, 3.989156e-001, 5.888995e-002, 1.451451e+000  
5.892101e-002, 5.448411e-001, 5.892101e-002, 1.159467e+000  
5.895207e-002, 7.127800e-001, 5.895207e-002, 8.234905e-001  
5.898313e-002, 8.963533e-001, 5.898313e-002, 4.562765e-001  
5.901419e-002, 1.088594e+000, 5.901419e-002, 7.176649e-002  
5.904525e-002, 1.282203e+000, 5.904525e-002, -3.154428e-001  
5.907631e-002, 1.470039e+000, 5.907631e-002, -6.910764e-001  
5.910737e-002, 1.644520e+000, 5.910737e-002, -1.039954e+000  
5.913843e-002, 1.799356e+000, 5.913843e-002, -1.349505e+000  
5.916949e-002, 1.928576e+000, 5.916949e-002, -1.607802e+000  
5.920055e-002, 2.027282e+000, 5.920055e-002, -1.805046e+000  
5.923161e-002, 2.091726e+000, 5.923161e-002, -1.933754e+000  
5.926267e-002, 2.119469e+000, 5.926267e-002, -1.989044e+000  
5.929373e-002, 2.109455e+000, 5.929373e-002, -1.968824e+000  
5.932479e-002, 2.062639e+000, 5.932479e-002, -1.875000e+000  
5.935585e-002, 1.979347e+000, 5.935585e-002, -1.708236e+000  
5.938691e-002, 1.863927e+000, 5.938691e-002, -1.477238e+000  
5.941797e-002, 1.720463e+000, 5.941797e-002, -1.190179e+000  
5.944903e-002, 1.554407e+000, 5.944903e-002, -8.579612e-001  
5.948009e-002, 1.372059e+000, 5.948009e-002, -4.931977e-001  
5.951115e-002, 1.180381e+000, 5.951115e-002, -1.098028e-001  
5.954221e-002, 9.864810e-001, 5.954221e-002, 2.779928e-001  
5.957327e-002, 7.978881e-001, 5.957327e-002, 6.551289e-001  
5.960433e-002, 6.217328e-001, 5.960433e-002, 1.007364e+000  
5.963539e-002, 4.646929e-001, 5.963539e-002, 1.321329e+000  
5.966645e-002, 3.327333e-001, 5.966645e-002, 1.585110e+000  
5.969751e-002, 2.308559e-001, 5.969751e-002, 1.788698e+000  
5.972857e-002, 1.629304e-001, 5.972857e-002, 1.924369e+000  
5.975963e-002, 1.309134e-001, 5.975963e-002, 1.988212e+000  
5.979069e-002, 1.375381e-001, 5.979069e-002, 1.974765e+000  
5.982175e-002, 1.813531e-001, 5.982175e-002, 1.886944e+000  
5.985281e-002, 2.609867e-001, 5.985281e-002, 1.727498e+000  
5.988387e-002, 3.734111e-001, 5.988387e-002, 1.502488e+000  
5.991493e-002, 5.143577e-001, 5.991493e-002, 1.220459e+000  
5.994599e-002, 6.784730e-001, 5.994599e-002, 8.921206e-001  
5.997705e-002, 8.595267e-001, 5.997705e-002, 5.299406e-001  
6.000811e-002, 1.050644e+000, 6.000811e-002, 1.476689e-001  
6.003917e-002, 1.244570e+000, 6.003917e-002, -2.401826e-001  
6.007023e-002, 1.433944e+000, 6.007023e-002, -6.188912e-001  
6.010129e-002, 1.611578e+000, 6.010129e-002, -9.740823e-001  
6.013235e-002, 1.771115e+000, 6.013235e-002, -1.293054e+000  
6.016341e-002, 1.905577e+000, 6.016341e-002, -1.561839e+000  
6.019447e-002, 2.010590e+000, 6.019447e-002, -1.771697e+000  
6.022553e-002, 2.081973e+000, 6.022553e-002, -1.914284e+000  
6.025659e-002, 2.117023e+000, 6.025659e-002, -1.984191e+000  
6.028765e-002, 2.114410e+000, 6.028765e-002, -1.978771e+000  
6.031871e-002, 2.074238e+000, 6.031871e-002, -1.898234e+000  
6.034977e-002, 1.998031e+000, 6.034977e-002, -1.745642e+000  
6.038083e-002, 1.888689e+000, 6.038083e-002, -1.526792e+000  
6.041189e-002, 1.750359e+000, 6.041189e-002, -1.249995e+000  
6.044295e-002, 1.588567e+000, 6.044295e-002, -9.262974e-001  
6.047401e-002, 1.408703e+000, 6.047401e-002, -5.664917e-001  
6.050507e-002, 1.218252e+000, 6.050507e-002, -1.855482e-001  
6.053613e-002, 1.024269e+000, 6.053613e-002, 2.024127e-001  
6.056719e-002, 8.341275e-001, 6.056719e-002, 5.826641e-001  
